Wavelength (nm),absorption coefficient,relative refractive index
350.0,9.95448979592e-05,1.35820381126
351.0,0.000105248571428,1.35800249096
352.0,0.0001105,1.35780220749
353.0,0.000115308979592,1.3576029691
354.0,0.000119685306122,1.35740478406
355.0,0.00012363877551,1.35720762758
356.0,0.000127179183673,1.35701066185
357.0,0.000130316326531,1.35681427797
358.0,0.00013306,1.3566195049
359.0,0.00013542,1.35642737162
360.0,0.000137406122449,1.35623890851
361.0,0.000139028163265,1.35605451432
362.0,0.000140295918367,1.35587309744
363.0,0.000141219183673,1.35569336915
364.0,0.000141807755102,1.35551404077
365.0,0.000142071428571,1.35533382892
366.0,0.00014202,1.35515223137
367.0,0.000141663265306,1.35497031937
368.0,0.000141011020408,1.3547893508
369.0,0.000140073061224,1.35461058355
370.0,0.000138859183673,1.35443525341
371.0,0.000137379183673,1.35426340221
372.0,0.000135642857143,1.35409412203
373.0,0.00013366,1.35392664212
374.0,0.000131440408163,1.35376019169
375.0,0.000128993877551,1.353594
376.0,0.000126330204082,1.35342787748
377.0,0.000123459183673,1.35326234355
378.0,0.000120390612245,1.35309769095
379.0,0.000117134285714,1.35293421239
380.0,0.0001137,1.35277220059
381.0,0.00011009755102,1.35261192928
382.0,0.000106336734694,1.35245330066
383.0,0.000102202238534,1.35229595992
384.0,9.73478285072e-05,1.35213954907
385.0,9.41e-05,1.35198366501
386.0,9.30325404724e-05,1.35182785203
387.0,9.22755867717e-05,1.35167257089
388.0,9.066864e-05,1.3515184427
389.0,8.756048e-05,1.35136608857
390.0,8.51e-05,1.35121613076
391.0,8.40282526316e-05,1.35106903419
392.0,8.32603368421e-05,1.35092425167
393.0,8.25685224172e-05,1.35078094392
394.0,8.20096140351e-05,1.35063827163
395.0,8.13e-05,1.35049539552
396.0,8.01829013333e-05,1.35035151641
397.0,7.85494980741e-05,1.35020681219
398.0,7.59160426667e-05,1.35006240548
399.0,7.1080032e-05,1.34991945436
400.0,6.63e-05,1.34977911331
401.0,6.25549894737e-05,1.34964172534
402.0,5.92586526316e-05,1.34950646549
403.0,5.67095578947e-05,1.34937253254
404.0,5.46319578947e-05,1.3492391253
405.0,5.3e-05,1.34910549186
406.0,5.18210947368e-05,1.34897167736
407.0,5.08331789474e-05,1.34883811503
408.0,4.97032693498e-05,1.34870519891
409.0,4.84389226006e-05,1.34857332306
410.0,4.73e-05,1.34844288151
411.0,4.63162628803e-05,1.34831418636
412.0,4.54876446247e-05,1.34818703966
413.0,4.49787365517e-05,1.34806105243
414.0,4.46164524138e-05,1.34793583557
415.0,4.44e-05,1.347811
416.0,4.428352e-05,1.34768660755
417.0,4.421056e-05,1.34756289323
418.0,4.42768e-05,1.34743972773
419.0,4.47616e-05,1.3473169817
420.0,4.54e-05,1.34719451659
421.0,4.6256e-05,1.34707203423
422.0,4.71546666667e-05,1.34694976428
423.0,4.75141333333e-05,1.3468281448
424.0,4.76656e-05,1.34670761385
425.0,4.78e-05,1.34658855668
426.0,4.79396705882e-05,1.34647074516
427.0,4.80928941176e-05,1.34635398677
428.0,4.83794695187e-05,1.34623817511
429.0,4.89479657754e-05,1.34612320379
430.0,4.95e-05,1.34600902207
431.0,4.98415979221e-05,1.34589582369
432.0,5.01692820779e-05,1.3457834713
433.0,5.07320806015e-05,1.34567176808
434.0,5.17205341353e-05,1.34556051726
435.0,5.3e-05,1.34544952066
436.0,5.47497744361e-05,1.34533873739
437.0,5.69189974937e-05,1.34522838878
438.0,5.90573727422e-05,1.34511871575
439.0,6.12338916256e-05,1.34500995926
440.0,6.35e-05,1.34490230867
441.0,6.59248551724e-05,1.34479558695
442.0,6.84102896552e-05,1.3446897059
443.0,7.0704891405e-05,1.34458461681
444.0,7.27854595986e-05,1.34448027099
445.0,7.51e-05,1.34437665457
446.0,7.79985946059e-05,1.34427397904
447.0,8.12978475343e-05,1.34417209534
448.0,8.48457842063e-05,1.34407076456
449.0,8.88817482267e-05,1.34396974782
450.0,9.22e-05,1.34386880547
451.0,9.47503079137e-05,1.3437677976
452.0,9.66102906475e-05,1.34366693502
453.0,9.68458666667e-05,1.34356649582
454.0,9.65304e-05,1.34346675811
455.0,9.62e-05,1.343368
456.0,9.594e-05,1.34327046873
457.0,9.57333333333e-05,1.34317396886
458.0,9.58525333333e-05,1.3430781145
459.0,9.67824e-05,1.34298251974
460.0,9.79e-05,1.34288679865
461.0,9.90648e-05,1.34279055593
462.0,0.000100181066667,1.34269390246
463.0,0.00010066416,1.34259752223
464.0,0.00010087872,1.34250211732
465.0,0.0001011,1.34240829116
466.0,0.000101379418776,1.34231577283
467.0,0.000101741358367,1.34222419157
468.0,0.000102494367347,1.34213323285
469.0,0.000104239346939,1.34204258218
470.0,0.000106,1.34195192618
471.0,0.000107189714286,1.34186118893
472.0,0.000108317714286,1.34177058856
473.0,0.000109813333333,1.34168031825
474.0,0.00011176,1.3415905712
475.0,0.000114,1.34150154059
476.0,0.000116683692308,1.3414133734
477.0,0.000119631589744,1.34132598172
478.0,0.000122297476923,1.34123924941
479.0,0.000124817107692,1.34115306422
480.0,0.000127,1.34106732182
481.0,0.000128672533333,1.34098205254
482.0,0.000130168711111,1.34089724356
483.0,0.000131891965812,1.34081284384
484.0,0.000133780512821,1.34072880234
485.0,0.000136,1.34064506803
486.0,0.000139043868132,1.34056159399
487.0,0.000142487208791,1.34047841708
488.0,0.000145245714286,1.34039564214
489.0,0.000147394285714,1.34031337562
490.0,0.00015,1.34023172758
491.0,0.000154274086957,1.3401508404
492.0,0.000159538782609,1.34007056876
493.0,0.000164176251874,1.33999067263
494.0,0.000168263568216,1.33991091198
495.0,0.000173,1.3398310468
496.0,0.000179853054505,1.33975079035
497.0,0.00018763257842,1.3396699566
498.0,0.000193744711421,1.33958911285
499.0,0.000198444749782,1.33950891026
500.0,0.000204,1.33943
501.0,0.000212395309771,1.33935271186
502.0,0.000222735367983,1.33927660175
503.0,0.000233393230769,1.33920115995
504.0,0.000244903384615,1.33912587678
505.0,0.000256,1.33905027056
506.0,0.000265164628763,1.33897445028
507.0,0.000274324120401,1.33889863427
508.0,0.000287215652174,1.33882293946
509.0,0.000305544347826,1.33874748277
510.0,0.000325,1.33867238114
511.0,0.000345114503368,1.3385977118
512.0,0.000364516149418,1.33852333922
513.0,0.000378392488263,1.33844930386
514.0,0.000389834366197,1.33837568423
515.0,0.000396,1.33830255885
516.0,0.000397380923077,1.33822999077
517.0,0.000398267897436,1.33815793739
518.0,0.000400367239819,1.33808631221
519.0,0.00040473719457,1.33801502862
520.0,0.000409,1.337944
521.0,0.000412481882353,1.33787316881
522.0,0.000415311529412,1.33780258949
523.0,0.000416269333333,1.33773234342
524.0,0.000416552,1.33766251196
525.0,0.000417,1.33759317811
526.0,0.000420390588235,1.33752442126
527.0,0.000425920784314,1.33745614205
528.0,0.000429355145511,1.33738819045
529.0,0.000431451095975,1.33732041646
530.0,0.000434,1.33725268512
531.0,0.000439064982456,1.33718511242
532.0,0.000444986292398,1.33711772206
533.0,0.000448208654971,1.3370504638
534.0,0.000449872280702,1.33698328742
535.0,0.000452,1.33691612028
536.0,0.000457011598086,1.33684880146
537.0,0.000463476516746,1.33678150838
538.0,0.000467801359684,1.33671448663
539.0,0.00047065884585,1.33664798181
540.0,0.000474,1.33658221966
541.0,0.000479070176263,1.33651715795
542.0,0.0004854906698,1.33645259129
543.0,0.000492808576577,1.33638831542
544.0,0.000501536432432,1.33632412607
545.0,0.000511,1.33625983259
546.0,0.000520995555556,1.33619545521
547.0,0.000531607407407,1.33613116791
548.0,0.000542467259259,1.33606714687
549.0,0.000553700444444,1.3360035683
550.0,0.000565,1.33594056631
551.0,0.000578367741935,1.33587799735
552.0,0.000590290322581,1.33581582371
553.0,0.000593857985112,1.33575404228
554.0,0.00059479964268,1.33569264993
555.0,0.000596,1.33563167849
556.0,0.000599099397993,1.33557135732
557.0,0.000603660735786,1.33551150169
558.0,0.000608285074169,1.33545183168
559.0,0.000613196746803,1.3353920674
560.0,0.000619,1.33533192581
561.0,0.000628353861893,1.33527118746
562.0,0.000637862404092,1.33521013219
563.0,0.000640555478261,1.33514916279
564.0,0.000641106608696,1.33508868202
565.0,0.000642,1.33502909223
566.0,0.000650600377358,1.33497058826
567.0,0.000665667169811,1.33491286396
568.0,0.000676807846582,1.33485554282
569.0,0.000685277196412,1.33479824833
570.0,0.000695,1.33474060398
571.0,0.000708807049606,1.33468231686
572.0,0.000725037814775,1.33462357057
573.0,0.00074043225621,1.33456470707
574.0,0.000754988269827,1.33450606786
575.0,0.000772,1.33444799444
576.0,0.000795561300345,1.33439076161
577.0,0.000822967170686,1.33433420677
578.0,0.000847833624288,1.33427811761
579.0,0.00087032227704,1.33422229711
580.0,0.000896,1.3341665987
581.0,0.000929523764706,1.33411110919
582.0,0.000968707764706,1.33405582836
583.0,0.00100980796333,1.33400073832
584.0,0.00105403701146,1.33394582121
585.0,0.0011,1.33389105947
586.0,0.00114682189269,1.33383645272
587.0,0.0011951772422,1.33378201139
588.0,0.0012449836339,1.33372774314
589.0,0.00129588204975,1.33367365564
590.0,0.001351,1.33361975654
591.0,0.00141471492296,1.3335660645
592.0,0.00148298566305,1.33351258653
593.0,0.00154657592871,1.33345928802
594.0,0.00160469223993,1.33340613338
595.0,0.001672,1.33335308705
596.0,0.00176253564792,1.33330011837
597.0,0.00186978125509,1.33324727564
598.0,0.00198254113272,1.33319456991
599.0,0.00210619509725,1.33314198714
600.0,0.002224,1.3330895114
601.0,0.00233514412088,1.33303708302
602.0,0.00243396449145,1.33298471695
603.0,0.00249797744501,1.33293246497
604.0,0.00254357459319,1.33288037885
605.0,0.002577,1.33282851037
606.0,0.0026031469648,1.33277684972
607.0,0.00262285129898,1.33272531861
608.0,0.00263298029851,1.33267405637
609.0,0.00263843522388,1.33262321517
610.0,0.002644,1.33257296426
611.0,0.00265237035294,1.33252339998
612.0,0.00266132047059,1.33247428643
613.0,0.00266783305322,1.33242535301
614.0,0.0026723805042,1.33237632912
615.0,0.002678,1.33232694414
616.0,0.00268732218182,1.33227692879
617.0,0.00269993052814,1.33222641826
618.0,0.0027149795597,1.33217588347
619.0,0.00273419321347,1.33212580026
620.0,0.002755,1.33207654149
621.0,0.00277853364631,1.33202788503
622.0,0.00280164292,1.33197963423
623.0,0.00281562963857,1.33193162101
624.0,0.00282361286722,1.33188367731
625.0,0.002834,1.33183563507
626.0,0.00286182040477,1.33178740186
627.0,0.00289524139076,1.33173912064
628.0,0.00290720371375,1.33169091309
629.0,0.00291074256553,1.33164289812
630.0,0.002916,1.33159515166
631.0,0.00294412226374,1.33154751455
632.0,0.00298386939194,1.33150001057
633.0,0.00299948689431,1.33145270418
634.0,0.00300482102439,1.33140565985
635.0,0.003012,1.33135894204
636.0,0.00303473097561,1.33131260764
637.0,0.00306572910569,1.33126664387
638.0,0.00308404343124,1.33122100063
639.0,0.00309412544056,1.33117562749
640.0,0.003108,1.33113048082
641.0,0.00314987346085,1.33108561297
642.0,0.00320384843731,1.331040996
643.0,0.00322770054171,1.33099656364
644.0,0.00323733694475,1.33095224965
645.0,0.00325,1.33090798778
646.0,0.00328544615385,1.33086371085
647.0,0.00333254358974,1.33081939292
648.0,0.00336122898551,1.33077514139
649.0,0.00337753043478,1.33073108455
650.0,0.0034,1.33068735068
651.0,0.00346013666199,1.33064394732
652.0,0.00354446047686,1.33060077973
653.0,0.00360761415668,1.33055789658
654.0,0.00365519918894,1.33051534787
655.0,0.00371,1.33047317988
656.0,0.00379256140659,1.33043137295
657.0,0.0038877999707,1.33038986855
658.0,0.0039673161952,1.33034861021
659.0,0.00403646133995,1.33030754148
660.0,0.0041,1.33026660591
661.0,0.00416431728353,1.33022575524
662.0,0.00422092196944,1.33018507171
663.0,0.00425166015038,1.3301445734
664.0,0.00426610225564,1.33010423638
665.0,0.00429,1.3300640367
666.0,0.00434478571429,1.33002394973
667.0,0.004672,1.32998397692
668.0,0.004665,1.32994415022
669.0,0.004734,1.32990450258
670.0,0.00439,1.32986506638
671.0,0.004757,1.32982581246
672.0,0.004768,1.32978673116
673.0,0.00478,1.32974785553
674.0,0.00481,1.32970921861
675.0,0.00448,1.32967084698
676.0,0.004908,1.32963271172
677.0,0.0049,1.32959478046
678.0,0.00493,1.32955702471
679.0,0.004978,1.329519416
680.0,0.00465,1.32948192587
681.0,0.005038,1.32944452871
682.0,0.00503,1.32940728868
683.0,0.005078,1.32937021432
684.0,0.005126,1.32933326705
685.0,0.00486,1.32929640827
686.0,0.005202,1.32925957903
687.0,0.00525,1.32922269435
688.0,0.005315,1.3291858888
689.0,0.005362,1.32914932571
690.0,0.00516,1.3291131684
691.0,0.005638,1.3290775766
692.0,0.00572,1.32904249335
693.0,0.005803,1.32900769011
694.0,0.005921,1.32897293597
695.0,0.00559,1.328938
696.0,0.006139,1.32890274567
697.0,0.006256,1.32886732586
698.0,0.006391,1.32883194382
699.0,0.006526,1.32879680276
700.0,0.00624,1.32876210157
701.0,0.00683,1.32872783032
702.0,0.006981,1.32869386383
703.0,0.00715,1.32866011563
704.0,0.007354,1.32862649928
705.0,0.00704,1.32859293667
706.0,0.007725,1.32855949022
707.0,0.007927,1.32852617574
708.0,0.008147,1.32849296875
709.0,0.008401,1.32845984475
710.0,0.00827,1.32842678256
711.0,0.008979,1.32839379645
712.0,0.009301,1.32836089298
713.0,0.009694,1.32832807278
714.0,0.010067,1.32829533649
715.0,0.010492,1.3282626694
716.0,0.010952,1.32823001077
717.0,0.01141,1.32819742397
718.0,0.011901,1.3281649911
719.0,0.012427,1.32813279426
720.0,0.01231,1.32810088714
721.0,0.01295,1.3280691993
722.0,0.013489,1.32803771863
723.0,0.014061,1.32800644342
724.0,0.014667,1.32797537193
725.0,0.01489,1.32794455728
726.0,0.015924,1.32791413553
727.0,0.016646,1.32788392953
728.0,0.017607,1.32785373228
729.0,0.018444,1.32782333678
730.0,0.019624,1.3277925239
731.0,0.020801,1.32776121077
732.0,0.021974,1.32772968146
733.0,0.023144,1.32769825409
734.0,0.024482,1.32766724675
735.0,0.025304,1.32763694856
736.0,0.026123,1.32760729226
737.0,0.0264373018381,1.32757802655
738.0,0.026733,1.32754890566
739.0,0.027377,1.32751968382
740.0,0.02768,1.32749012858
741.0,0.027982,1.32746025699
742.0,0.028113,1.32743025388
743.0,0.028245,1.32740029962
744.0,0.028376,1.32737057457
745.0,0.028338,1.32734124843
746.0,0.028468,1.32731226539
747.0,0.02843,1.32728352624
748.0,0.02856,1.32725497015
749.0,0.028522,1.32722653628
750.0,0.028484,1.32719816484
751.0,0.028613,1.32716992013
752.0,0.028575,1.32714182536
753.0,0.028704,1.32711381718
754.0,0.028666,1.32708583223
755.0,0.028794,1.32705780715
756.0,0.028756,1.32702968405
757.0,0.0287185,1.32700149404
758.0,0.028681,1.32697331744
759.0,0.028643,1.32694523475
760.0,0.028605,1.32691732645
761.0,0.028733,1.32688967665
762.0,0.028695,1.32686228154
763.0,0.028657,1.3268350284
764.0,0.0286193611062,1.32680780093
765.0,0.028582,1.32678048279
766.0,0.028545,1.32675294291
767.0,0.028344,1.32672508706
768.0,0.028307,1.32669722192
769.0,0.02827,1.32666971654
770.0,0.028234,1.32664278212
771.0,0.0281410983315,1.32661623651
772.0,0.027998,1.32658991379
773.0,0.027799,1.32656364906
774.0,0.027763,1.32653727743
775.0,0.027565,1.32651064075
776.0,0.027529,1.32648373944
777.0,0.0274375264983,1.32645673446
778.0,0.027297,1.32642979393
779.0,0.027101,1.32640308596
780.0,0.026905,1.32637677618
781.0,0.026549,1.32635088313
782.0,0.0264255438578,1.32632528299
783.0,0.02632,1.3262998615
784.0,0.026127,1.3262745044
785.0,0.025933,1.32624909743
786.0,0.02558,1.32622361219
787.0,0.025229,1.326198162
788.0,0.0251169265303,1.32617273089
789.0,0.025005,1.32614729813
790.0,0.024656,1.326121843
791.0,0.024465,1.3260963402
792.0,0.024117,1.3260707373
793.0,0.0239123318711,1.32604512052
794.0,0.02374,1.32601961272
795.0,0.023552,1.32599426611
796.0,0.023365,1.32596896392
797.0,0.023178,1.32594374459
798.0,0.0230072622991,1.3259186585
799.0,0.022805,1.32589375599
800.0,0.022462,1.32586909043
801.0,0.022434,1.32584476533
802.0,0.022352261638,1.32582070749
803.0,0.022222,1.32579677505
804.0,0.022038,1.32577282617
805.0,0.022011,1.32574871898
806.0,0.0219897175806,1.32572432812
807.0,0.021956,1.32569971007
808.0,0.021773,1.3256750281
809.0,0.021902,1.32565044635
810.0,0.021875,1.3256259801
811.0,0.0219065251479,1.32560151485
812.0,0.021976,1.3255771102
813.0,0.022103,1.32555282745
814.0,0.02223,1.32552872788
815.0,0.0223431602564,1.32550487966
816.0,0.022484,1.32548139116
817.0,0.022764,1.32545816091
818.0,0.023043,1.32543503221
819.0,0.0231580404517,1.32541184837
820.0,0.023294,1.32538845269
821.0,0.023878,1.32536466739
822.0,0.02446,1.32534047938
823.0,0.0247853271264,1.32531624787
824.0,0.025163,1.32529235579
825.0,0.026199,1.32526899675
826.0,0.027689,1.32524597198
827.0,0.0283897981252,1.32522315467
828.0,0.029139,1.32520041949
829.0,0.031075,1.32517764109
830.0,0.032043077087,1.32515469463
831.0,0.032966,1.32513155304
832.0,0.034588,1.32510830761
833.0,0.036055,1.32508503829
834.0,0.0365716234014,1.32506182503
835.0,0.037022,1.32503874779
836.0,0.037879,1.32501588926
837.0,0.0382279910519,1.32499328149
838.0,0.038539,1.3249708001
839.0,0.039092,1.3249483011
840.0,0.039494,1.32492565457
841.0,0.0397456738088,1.32490287811
842.0,0.039997,1.324880039
843.0,0.040397,1.32485719904
844.0,0.0405726701803,1.32483442001
845.0,0.040748,1.32481176372
846.0,0.041145,1.32478925648
847.0,0.04131234937,1.32476684299
848.0,0.041493,1.32474454926
849.0,0.042036,1.32472240734
850.0,0.041986,1.32470049373
851.0,0.042232,1.32467884229
852.0,0.042488634586,1.32465732271
853.0,0.042723,1.32463580077
854.0,0.0428751523636,1.32461414226
855.0,0.043064,1.32459221299
856.0,0.043601,1.3245698315
857.0,0.0436965448586,1.32454709406
858.0,0.043792,1.32452436248
859.0,0.044326,1.324502
860.0,0.0445000966787,1.32448011329
861.0,0.044661,1.32445850501
862.0,0.045047,1.32443708235
863.0,0.0452754511486,1.3244157525
864.0,0.045524,1.32439442266
865.0,0.046052,1.324373
866.0,0.04658,1.32435148138
867.0,0.0468423545619,1.32432994042
868.0,0.047052,1.32430839945
869.0,0.0472484243499,1.32428688083
870.0,0.047521,1.3242654069
871.0,0.048332,1.324244
872.0,0.0486442586251,1.32422268478
873.0,0.048941,1.32420144203
874.0,0.049604,1.32418022826
875.0,0.0500498763429,1.324159
876.0,0.050495,1.3241377266
877.0,0.051154,1.3241164376
878.0,0.0515745909429,1.3240951798
879.0,0.052038,1.324074
880.0,0.052979,1.32405293455
881.0,0.0534275191998,1.32403195995
882.0,0.053856,1.32401103321
883.0,0.054649,1.32399011133
884.0,0.0551966701577,1.32396915133
885.0,0.055661,1.32394811023
886.0,0.0560568890395,1.32392690938
887.0,0.056527,1.32390557857
888.0,0.057454,1.32388428127
889.0,0.0578843651951,1.32386318172
890.0,0.058314,1.32384237863
891.0,0.059235,1.32382177956
892.0,0.0597071379802,1.32380132129
893.0,0.060088,1.32378094319
894.0,0.0604673496701,1.32376058462
895.0,0.060936,1.32374018496
896.0,0.06185,1.32371971359
897.0,0.0622713014403,1.32369924841
898.0,0.062692,1.3236787764
899.0,0.063601,1.32365827215
900.0,0.06407908645,1.32363770971
901.0,0.064575,1.32361708012
902.0,0.065618,1.32359640788
903.0,0.0662294536349,1.32357572026
904.0,0.066724,1.32355504448
905.0,0.067148131119,1.32353440781
906.0,0.067686,1.32351382955
907.0,0.068997,1.32349323117
908.0,0.0697354824469,1.3234726606
909.0,0.070366,1.32345221469
910.0,0.0710227795535,1.32343199114
911.0,0.071867,1.32341212122
912.0,0.073579,1.32339248752
913.0,0.0746568256908,1.32337285948
914.0,0.075618,1.32335300654
915.0,0.076605955498,1.32333277115
916.0,0.077922,1.32331224953
917.0,0.080852,1.32329157781
918.0,0.0825694103726,1.32327089181
919.0,0.084095,1.32325032737
920.0,0.0857714755547,1.32323002032
921.0,0.088006,1.32321008803
922.0,0.09268,1.32319047291
923.0,0.0956085362222,1.32317103454
924.0,0.098192,1.32315163339
925.0,0.101112380173,1.32313214371
926.0,0.104222,1.3231126635
927.0,0.107290107292,1.32309319257
928.0,0.11131,1.32307366129
929.0,0.119441,1.323054
930.0,0.124108545979,1.32303414531
931.0,0.128093,1.32301412916
932.0,0.132707315455,1.32299402495
933.0,0.137382,1.32297390606
934.0,0.141503278152,1.32295384589
935.0,0.146496,1.32293391781
936.0,0.155737,1.32291417591
937.0,0.162590653748,1.32289456822
938.0,0.168802,1.32287505462
939.0,0.174592020311,1.32285560069
940.0,0.181811,1.32283617832
941.0,0.196308,1.32281684429
942.0,0.203914705194,1.3227975703
943.0,0.21055,1.32277829108
944.0,0.219364931155,1.32275894136
945.0,0.228721,1.32273946826
946.0,0.237488115982,1.32271989444
947.0,0.246816,1.32270027078
948.0,0.25673465908,1.32268064821
949.0,0.270131,1.32266107764
950.0,0.297625,1.32264161
951.0,0.313469200789,1.32262229526
952.0,0.327359,1.32260313812
953.0,0.344722807706,1.32258407926
954.0,0.362238,1.32256505459
955.0,0.378240788358,1.322546
956.0,0.393028,1.32252692234
957.0,0.406411947269,1.32250785559
958.0,0.418442,1.32248877637
959.0,0.428185717669,1.3224696613
960.0,0.438514,1.32245048694
961.0,0.453749,1.32243124962
962.0,0.459424500087,1.32241197142
963.0,0.463246,1.32239267571
964.0,0.46690285521,1.32237338583
965.0,0.470099,1.32235412515
966.0,0.473150355358,1.32233491702
967.0,0.475625,1.32231574392
968.0,0.477193130754,1.32229658137
969.0,0.478534,1.32227747168
970.0,0.479983499489,1.32225845771
971.0,0.48143,1.32223958895
972.0,0.482798792862,1.32222089646
973.0,0.484315,1.32220229755
974.0,0.486399,1.3221836971
975.0,0.48661903642,1.322165
976.0,0.486689,1.32214619782
977.0,0.486385864975,1.32212734576
978.0,0.485694,1.32210844423
979.0,0.484165195544,1.3220894936
980.0,0.482138,1.32207048192
981.0,0.48043355494,1.3220513628
982.0,0.478597,1.322032194
983.0,0.476355260175,1.32201304869
984.0,0.473793,1.321994
985.0,0.470921665033,1.32197505699
986.0,0.467734,1.32195617266
987.0,0.46416439323,1.32193733609
988.0,0.460428,1.32191853634
989.0,0.456921217954,1.3218997625
990.0,0.453151,1.32188100364
991.0,0.448255219649,1.32186224905
992.0,0.44337,1.32184350084
993.0,0.43976019803,1.32182477385
994.0,0.436157,1.32180608217
995.0,0.431479488065,1.32178743991
996.0,0.426449,1.32176888933
997.0,0.42160962498,1.32175049622
998.0,0.41678,1.32173214103
999.0,0.412033998744,1.32171368765
1000.0,0.40715,1.321695
1001.0,0.401721937663,1.32167599177
1002.0,0.396305,1.3216567196
1003.0,0.391524931257,1.32163726177
1004.0,0.386754,1.32161769657
1005.0,0.381524463445,1.32159810229
1006.0,0.375992,1.3215785572
1007.0,0.370085293036,1.3215591396
1008.0,0.364026,1.32153992777
1009.0,0.358060562227,1.321521
1010.0,0.352107,1.32150238454
1011.0,0.346083598034,1.32148402298
1012.0,0.340236,1.32146586364
1013.0,0.334864590049,1.32144785481
1014.0,0.32965,1.32142994482
1015.0,0.324373313218,1.32141208197
1016.0,0.319107,1.32139421456
1017.0,0.313988730518,1.3213762909
1018.0,0.308604,1.32135825931
1019.0,0.30222435655,1.32134006809
1020.0,0.295679,1.32132166555
1021.0,0.289777786995,1.321303
1022.0,0.284034,1.32128395943
1023.0,0.278147658542,1.32126454444
1024.0,0.272435,1.32124487222
1025.0,0.267265654883,1.32122505996
1026.0,0.262106,1.32120522486
1027.0,0.256425124257,1.32118548412
1028.0,0.250594,1.32116595493
1029.0,0.244444604412,1.3211467545
1030.0,0.239127,1.321128
1031.0,0.235789968241,1.3211096816
1032.0,0.23312703356,1.32109167361
1033.0,0.229917,1.3210739195
1034.0,0.225052215373,1.32105636272
1035.0,0.21976,1.32103894675
1036.0,0.215231305741,1.32102161504
1037.0,0.210853,1.32100431104
1038.0,0.206331421727,1.32098697823
1039.0,0.201981,1.32096956006
1040.0,0.198091891387,1.320952
1041.0,0.19435,1.3209344351
1042.0,0.190376034828,1.32091700014
1043.0,0.186749,1.32089963512
1044.0,0.184046669922,1.32088228008
1045.0,0.181699533981,1.32086487501
1046.0,0.179005,1.32084735995
1047.0,0.175223034773,1.32082967489
1048.0,0.171469,1.32081175988
1049.0,0.168788417918,1.32079355491
1050.0,0.166355,1.320775
1051.0,0.163805062252,1.32075591478
1052.0,0.16126,1.32073626327
1053.0,0.15853378894,1.32071620204
1054.0,0.156185,1.32069588769
1055.0,0.154647390522,1.32067547683
1056.0,0.153410656107,1.32065512603
1057.0,0.152176,1.3206349919
1058.0,0.150904935218,1.32061523103
1059.0,0.149515,1.320596
1060.0,0.147468593738,1.32057727313
1061.0,0.14568,1.32055887781
1062.0,0.144842881393,1.32054075028
1063.0,0.144224,1.32052282679
1064.0,0.143675034039,1.32050504357
1065.0,0.143186417366,1.32048733687
1066.0,0.142639,1.32046964292
1067.0,0.141818665002,1.32045189796
1068.0,0.141195,1.32043403824
1069.0,0.141040123417,1.320416
1070.0,0.140931,1.32039781799
1071.0,0.14077032383,1.32037957754
1072.0,0.140609884137,1.32036129074
1073.0,0.140537,1.32034296965
1074.0,0.140833189661,1.32032462638
1075.0,0.141445,1.32030627299
1076.0,0.142531705734,1.32028792158
1077.0,0.143516,1.32026958422
1078.0,0.143801049894,1.320251273
1079.0,0.143971820842,1.320233
1080.0,0.144281,1.32021477742
1081.0,0.145542141835,1.32019659948
1082.0,0.147498,1.32017845133
1083.0,0.149710464632,1.32016031811
1084.0,0.151863,1.32014218495
1085.0,0.153339465744,1.320124037
1086.0,0.154595584967,1.32010585939
1087.0,0.156068,1.32008763726
1088.0,0.158060137841,1.32006935575
1089.0,0.160397,1.320051
1090.0,0.163189771782,1.32003256825
1091.0,0.165862,1.32001407474
1092.0,0.167679384142,1.31999552861
1093.0,0.169222453693,1.319976939
1094.0,0.171151,1.31995831505
1095.0,0.174078188354,1.31993966589
1096.0,0.177718,1.31992100067
1097.0,0.182343750607,1.31990232852
1098.0,0.18655,1.31988365859
1099.0,0.188878729333,1.319865
1100.0,0.190664708027,1.319846354
1101.0,0.19289,1.31982771179
1102.0,0.196635292025,1.31980906745
1103.0,0.200515,1.31979041505
1104.0,0.203074519432,1.31977174868
1105.0,0.205253282095,1.31975306241
1106.0,0.207925,1.31973435033
1107.0,0.212207965642,1.31971560652
1108.0,0.216622,1.31969682505
1109.0,0.219590448386,1.319678
1110.0,0.222125405464,1.31965905108
1111.0,0.225086,1.31963993969
1112.0,0.230011319863,1.31962072252
1113.0,0.233714,1.31960145621
1114.0,0.234357328191,1.31958219745
1115.0,0.234685205226,1.31956300289
1116.0,0.235338,1.3195439292
1117.0,0.239303369975,1.31952503304
1118.0,0.245033,1.31950637109
1119.0,0.249175518801,1.319488
1120.0,0.253123439796,1.31946999742
1121.0,0.257829,1.3194523489
1122.0,0.264635470705,1.31943497295
1123.0,0.271917,1.31941778809
1124.0,0.277341139669,1.31940071284
1125.0,0.28233778423,1.3193836657
1126.0,0.289049,1.31936656521
1127.0,0.301538461859,1.31934932988
1128.0,0.316387,1.31933187822
1129.0,0.327979393885,1.31931412876
1130.0,0.339113114853,1.319296
1131.0,0.353325,1.31927739604
1132.0,0.376789021035,1.31925834773
1133.0,0.403721,1.31923896368
1134.0,0.42623160993,1.31921935253
1135.0,0.447835667331,1.31919962292
1136.0,0.471239,1.31917988348
1137.0,0.496647623629,1.31916024283
1138.0,0.524345860878,1.31914080961
1139.0,0.557157,1.31912169246
1140.0,0.6036677003,1.319103
1141.0,0.651997,1.31908472251
1142.0,0.686754464871,1.31906674064
1143.0,0.717447117559,1.31904899859
1144.0,0.753543,1.31903144056
1145.0,0.807365332728,1.31901401076
1146.0,0.859689,1.31899665339
1147.0,0.893536942099,1.31897931265
1148.0,0.921330541719,1.31896193274
1149.0,0.949313,1.31894445786
1150.0,0.979734414508,1.31892683221
1151.0,1.01034830369,1.318909
1152.0,1.040653,1.31889104989
1153.0,1.07297655924,1.31887308434
1154.0,1.09983,1.31885506823
1155.0,1.11628405871,1.31883696643
1156.0,1.12906369048,1.31881874383
1157.0,1.140423,1.3188003653
1158.0,1.15096688136,1.31878179573
1159.0,1.16047686274,1.318763
1160.0,1.169972,1.3187438614
1161.0,1.18117597312,1.31872434894
1162.0,1.189588,1.31870455602
1163.0,1.19290567408,1.31868457607
1164.0,1.19511056503,1.3186645025
1165.0,1.197311,1.31864442873
1166.0,1.19987636617,1.31862444818
1167.0,1.20243729943,1.31860465426
1168.0,1.204994,1.3185851404
1169.0,1.20717862559,1.318566
1170.0,1.20935903943,1.31854722091
1171.0,1.212639,1.31852869823
1172.0,1.22336741336,1.31851038633
1173.0,1.231997,1.31849223953
1174.0,1.23118214815,1.31847421219
1175.0,1.22966885185,1.31845625866
1176.0,1.228854,1.31843833326
1177.0,1.23025026301,1.31842039035
1178.0,1.23332030379,1.31840238428
1179.0,1.236386,1.31838426938
1180.0,1.23872965296,1.318366
1181.0,1.24106898383,1.3183476364
1182.0,1.243879,1.3183292633
1183.0,1.24814012455,1.31831087175
1184.0,1.252392,1.31829245278
1185.0,1.2551832759,1.31827399744
1186.0,1.25750019864,1.31825549677
1187.0,1.259813,1.31823694182
1188.0,1.26227844104,1.31821832362
1189.0,1.26473978124,1.31819963322
1190.0,1.267197,1.31818086167
1191.0,1.26965010769,1.318162
1192.0,1.27209911459,1.31814291195
1193.0,1.274544,1.31812354482
1194.0,1.27752488197,1.31810401502
1195.0,1.28050166321,1.31808443895
1196.0,1.281854,1.31806493301
1197.0,1.2814487292,1.3180456136
1198.0,1.28033056951,1.31802659713
1199.0,1.278646,1.318008
1200.0,1.27187026298,1.31798988967
1201.0,1.266054,1.31797219757
1202.0,1.26794192593,1.31795483607
1203.0,1.27144807407,1.31793771754
1204.0,1.273336,1.31792075434
1205.0,1.27019243634,1.31790385884
1206.0,1.2640319838,1.3178869434
1207.0,1.25976,1.31786992039
1208.0,1.25857363004,1.31785270219
1209.0,1.25782168022,1.31783520114
1210.0,1.256637,1.31781732962
1211.0,1.25276423403,1.317799
1212.0,1.24702530957,1.31778012431
1213.0,1.243169,1.31776075448
1214.0,1.24203591681,1.31774101267
1215.0,1.24133155205,1.31772102105
1216.0,1.240102,1.3177009018
1217.0,1.23355391163,1.3176807771
1218.0,1.22295278832,1.3176607691
1219.0,1.216433,1.317641
1220.0,1.215234136,1.31762136358
1221.0,1.21455015924,1.31760168879
1222.0,1.213447,1.31758200055
1223.0,1.20965084376,1.31756232377
1224.0,1.20399742556,1.31754268337
1225.0,1.200217,1.31752310426
1226.0,1.19910041283,1.31750361135
1227.0,1.19839905525,1.31748422956
1228.0,1.197284,1.31746498379
1229.0,1.19414056613,1.31744589897
1230.0,1.18914571882,1.317427
1231.0,1.184158,1.31740840777
1232.0,1.17979693187,1.31739015576
1233.0,1.17544295747,1.31737213782
1234.0,1.171096,1.31735424776
1235.0,1.16613695496,1.31733637943
1236.0,1.16118489299,1.31731842666
1237.0,1.158097,1.31730028327
1238.0,1.15702858277,1.31728184311
1239.0,1.15636199657,1.317263
1240.0,1.155295,1.31724368668
1241.0,1.1522221283,1.31722396323
1242.0,1.14730611141,1.31720391453
1243.0,1.142397,1.31718362544
1244.0,1.13801178418,1.31716318083
1245.0,1.13363344066,1.31714266558
1246.0,1.129561,1.31712216455
1247.0,1.12598955925,1.31710176261
1248.0,1.1227180537,1.31708154462
1249.0,1.1194512713,1.31706159546
1250.0,1.115894,1.317042
1251.0,1.11123514821,1.31702274862
1252.0,1.10628779849,1.31700373969
1253.0,1.103193,1.31698492005
1254.0,1.10205799611,1.31696623653
1255.0,1.10130732987,1.31694763596
1256.0,1.100558,1.31692906519
1257.0,1.09980997417,1.31691047105
1258.0,1.09906327863,1.31689180038
1259.0,1.097935,1.316873
1260.0,1.09435041348,1.31685420776
1261.0,1.08893763227,1.31683556041
1262.0,1.085368,1.31681700314
1263.0,1.0842578174,1.31679848116
1264.0,1.08352515254,1.31677993968
1265.0,1.082794,1.31676132388
1266.0,1.08177936977,1.31674257898
1267.0,1.08065963424,1.31672365018
1268.0,1.07975383159,1.31670448268
1269.0,1.079381,1.31668502168
1270.0,1.08052109442,1.31666521239
1271.0,1.08329074439,1.316645
1272.0,1.086714,1.31662411525
1273.0,1.09192928726,1.31660248096
1274.0,1.09867363555,1.31658033042
1275.0,1.103869,1.31655789695
1276.0,1.10649019982,1.31653541386
1277.0,1.10845749459,1.31651311447
1278.0,1.111111,1.31649123208
1279.0,1.11568399257,1.31647
1280.0,1.12202399756,1.31644935754
1281.0,1.12939250378,1.31642905327
1282.0,1.137051,1.31640903442
1283.0,1.14580022546,1.3163892482
1284.0,1.1554407926,1.31636964184
1285.0,1.163734,1.31635016256
1286.0,1.16963889813,1.31633075758
1287.0,1.17469537822,1.31631137413
1288.0,1.180536,1.31629195942
1289.0,1.1879365772,1.31627246068
1290.0,1.19643157667,1.31625282513
1291.0,1.20579153781,1.316233
1292.0,1.215787,1.31621304237
1293.0,1.2266916534,1.31619304494
1294.0,1.23877137846,1.31617300832
1295.0,1.251785,1.31615293312
1296.0,1.26635911055,1.31613281996
1297.0,1.28211399127,1.31611266946
1298.0,1.297299,1.31609248222
1299.0,1.3106402503,1.31607225886
1300.0,1.3230528088,1.316052
1301.0,1.3360694629,1.31603170643
1302.0,1.351223,1.3160113778
1303.0,1.3702454367,1.31599101295
1304.0,1.39240126824,1.31597061077
1305.0,1.415522,1.31595017011
1306.0,1.43951268119,1.31592968984
1307.0,1.46460801772,1.31590916882
1308.0,1.489134,1.31588860592
1309.0,1.51177336401,1.315868
1310.0,1.53342566875,1.31584736349
1311.0,1.55574213911,1.31582670649
1312.0,1.580374,1.31580602441
1313.0,1.60921266025,1.31578531267
1314.0,1.64092623309,1.31576456668
1315.0,1.672331,1.31574378184
1316.0,1.70144752115,1.31572295357
1317.0,1.72968443193,1.31570207726
1318.0,1.75894012676,1.31568114835
1319.0,1.791113,1.31566016223
1320.0,1.82912951145,1.31563911431
1321.0,1.87086051584,1.315618
1322.0,1.910621,1.31559670068
1323.0,1.94487447654,1.31557515952
1324.0,1.97644913446,1.31555346461
1325.0,2.00920697514,1.31553170405
1326.0,2.04701,1.31550996594
1327.0,2.09608772697,1.31548833839
1328.0,2.15211748677,1.31546690948
1329.0,2.203133,1.31544576732
1330.0,2.24325122043,1.315425
1331.0,2.27839954099,1.31540470611
1332.0,2.31432734106,1.31538484925
1333.0,2.356784,1.31536531501
1334.0,2.41446780379,1.31534598901
1335.0,2.48102146436,1.31532675685
1336.0,2.539611,1.31530750414
1337.0,2.58421916584,1.3152881165
1338.0,2.6230050463,1.31526847952
1339.0,2.66039915362,1.31524847882
1340.0,2.700832,1.315228
1341.0,2.74407022015,1.31520703835
1342.0,2.78839745042,1.31518570531
1343.0,2.83601970547,1.3151640607
1344.0,2.889143,1.31514216433
1345.0,2.95777626516,1.31512007603
1346.0,3.03492253978,1.31509785563
1347.0,3.097279,1.31507556294
1348.0,3.13870963153,1.31505325779
1349.0,3.17220457235,1.315031
1350.0,3.203150227,1.31500867493
1351.0,3.236933,1.31498615721
1352.0,3.27380438391,1.31496349055
1353.0,3.3113747234,1.31494071865
1354.0,3.35106870118,1.31491788522
1355.0,3.394311,1.31489503398
1356.0,3.44509529573,1.31487220863
1357.0,3.50090002242,1.31484945287
1358.0,3.553377,1.31482681042
1359.0,3.59833672396,1.31480432499
1360.0,3.63974697088,1.31478204028
1361.0,3.68149548236,1.31476
1362.0,3.72747,1.31473833653
1363.0,3.77774467279,1.31471707325
1364.0,3.83117477618,1.31469609038
1365.0,3.88981974148,1.31467526813
1366.0,3.955739,1.31465448673
1367.0,4.03483980532,1.31463362639
1368.0,4.12638046692,1.31461256733
1369.0,4.222447,1.31459118976
1370.0,4.3194231001,1.31456937391
1371.0,4.42018062639,1.314547
1372.0,4.52653783948,1.31452389946
1373.0,4.640313,1.31450010246
1374.0,4.76122311594,1.31447578729
1375.0,4.88991650474,1.31445113228
1376.0,5.02960839117,1.31442631571
1377.0,5.183514,1.31440151589
1378.0,5.35491970272,1.31437691113
1379.0,5.54550649563,1.31435267973
1380.0,5.75608154072,1.314329
1381.0,5.987452,1.31430585135
1382.0,6.24050174292,1.31428304485
1383.0,6.52160259408,1.31426050623
1384.0,6.8397936482,1.31423816126
1385.0,7.204114,1.31421593568
1386.0,7.6665425655,1.31419375525
1387.0,8.21934110952,1.31417154572
1388.0,8.781973,1.31414923283
1389.0,9.31589532976,1.31412674234
1390.0,9.85103419302,1.314104
1391.0,10.4095564598,1.31408097916
1392.0,11.013629,1.31405774139
1393.0,11.6901512779,1.31403434478
1394.0,12.4283686075,1.31401084741
1395.0,13.1939666333,1.31398730737
1396.0,13.952631,1.31396378273
1397.0,14.7074584858,1.3139403316
1398.0,15.4727422101,1.31391701204
1399.0,16.2309623294,1.31389388214
1400.0,16.964599,1.313871
1401.0,17.6677618908,1.31384797044
1402.0,18.3513862105,1.31382453362
1403.0,19.0231904249,1.31380095056
1404.0,19.690893,1.31377748233
1405.0,20.3604828022,1.31375438996
1406.0,21.0267040617,1.3137319345
1407.0,21.6804082904,1.31371037699
1408.0,22.312447,1.31368997847
1409.0,22.9332674954,1.313671
1410.0,23.544787617,1.31365332907
1411.0,24.1250646801,1.31363658032
1412.0,24.652156,1.31362060552
1413.0,25.1256249064,1.31360525642
1414.0,25.5636616137,1.31359038478
1415.0,25.9722637641,1.31357584236
1416.0,26.357429,1.31356148091
1417.0,26.7135274122,1.31354715219
1418.0,27.0433856064,1.31353270797
1419.0,27.3656859975,1.313518
1420.0,27.699111,1.31350321973
1421.0,28.0559166373,1.31348862631
1422.0,28.4239106696,1.31347417302
1423.0,28.7851031171,1.31345981315
1424.0,29.121504,1.3134455
1425.0,29.4361297974,1.31343118685
1426.0,29.7383663525,1.31341682698
1427.0,30.0197777313,1.31340237369
1428.0,30.271928,1.31338778027
1429.0,30.4916091328,1.313373
1430.0,30.6891183686,1.31335808466
1431.0,30.8762776701,1.3133431105
1432.0,31.064909,1.31332806752
1433.0,31.2716546751,1.31331294573
1434.0,31.4908281873,1.31329773512
1435.0,31.7007582619,1.3132824257
1436.0,31.8797736243,1.31326700748
1437.0,32.006203,1.31325147046
1438.0,32.0836676304,1.31323580463
1439.0,32.1425505113,1.31322
1440.0,32.201323,1.31320401329
1441.0,32.2683198167,1.31318782879
1442.0,32.3374001163,1.3131714779
1443.0,32.4053219075,1.31315499203
1444.0,32.4688431991,1.31313840255
1445.0,32.524722,1.31312174087
1446.0,32.5747886937,1.31310503838
1447.0,32.6214552915,1.31308832647
1448.0,32.6623522436,1.31307163655
1449.0,32.69511,1.313055
1450.0,32.7237660799,1.31303840801
1451.0,32.7505416544,1.31302182308
1452.0,32.7703426516,1.31300523355
1453.0,32.778075,1.31298862779
1454.0,32.7699603153,1.31297199414
1455.0,32.7489368407,1.31295532095
1456.0,32.7199854458,1.3129385966
1457.0,32.688087,1.31292180942
1458.0,32.6529686674,1.31290494777
1459.0,32.60943806,1.312888
1460.0,32.5550967189,1.31287102021
1461.0,32.4875461852,1.31285405004
1462.0,32.404388,1.3128370592
1463.0,32.2605311114,1.31282001741
1464.0,32.0408740444,1.31280289436
1465.0,31.7880027051,1.31278565976
1466.0,31.544503,1.31276828332
1467.0,31.3151471027,1.31275073474
1468.0,31.0791150264,1.31273298373
1469.0,30.840604437,1.312715
1470.0,30.603813,1.31269679397
1471.0,30.3742020679,1.31267839931
1472.0,30.1480844031,1.31265982059
1473.0,29.9159347868,1.31264106238
1474.0,29.668228,1.31262212926
1475.0,29.3945291205,1.3126030258
1476.0,29.0991341355,1.31258375657
1477.0,28.7946141902,1.31256432615
1478.0,28.4935404299,1.3125447391
1479.0,28.208484,1.312525
1480.0,27.9444862071,1.31250500705
1481.0,27.692697561,1.31248469571
1482.0,27.4448530114,1.31246412645
1483.0,27.1926875078,1.31244335976
1484.0,26.927936,1.31242245611
1485.0,26.6555682381,1.31240147597
1486.0,26.3779001616,1.31238047981
1487.0,26.0826860043,1.31235952811
1488.0,25.75768,1.31233868135
1489.0,25.360225352,1.312318
1490.0,24.9026739552,1.31229758371
1491.0,24.4552930808,1.31227743146
1492.0,24.08835,1.31225745267
1493.0,23.8164597907,1.3122375568
1494.0,23.5897725644,1.31221765327
1495.0,23.3818581428,1.31219765153
1496.0,23.1662863475,1.31217746101
1497.0,22.916627,1.31215699116
1498.0,22.6071655154,1.31213615142
1499.0,22.2571703908,1.31211485122
1500.0,21.9076860708,1.312093
1501.0,21.599757,1.31207040272
1502.0,21.3467610452,1.31204703408
1503.0,21.1226747331,1.3120230581
1504.0,20.9094404984,1.31199863883
1505.0,20.6890007758,1.3119739403
1506.0,20.443298,1.31194912654
1507.0,20.1533088098,1.3119243616
1508.0,19.8327429003,1.3118998095
1509.0,19.5126422907,1.31187563429
1510.0,19.224049,1.311852
1511.0,18.9763160123,1.31182892872
1512.0,18.7501708667,1.31180626581
1513.0,18.5337174149,1.3117839102
1514.0,18.3150595088,1.31176176082
1515.0,18.082301,1.31173971661
1516.0,17.8243481902,1.31171767649
1517.0,17.5515051166,1.3116955394
1518.0,17.2839722347,1.31167320428
1519.0,17.04195,1.31165057005
1520.0,16.825540233,1.31162753565
1521.0,16.6212434904,1.311604
1522.0,16.4288583312,1.31157982467
1523.0,16.2481833147,1.3115550352
1524.0,16.079017,1.3115297765
1525.0,15.926959325,1.31150419349
1526.0,15.7906159079,1.31147843108
1527.0,15.6592938283,1.31145263418
1528.0,15.5223001658,1.31142694771
1529.0,15.368942,1.31140151658
1530.0,15.1871859856,1.31137648571
1531.0,14.9845428524,1.311352
1532.0,14.7796357931,1.31132807774
1533.0,14.591088,1.3113045793
1534.0,14.4265851569,1.31128141278
1535.0,14.2752604657,1.31125848626
1536.0,14.127908396,1.31123570783
1537.0,13.9753234176,1.31121298558
1538.0,13.8083,1.31119022759
1539.0,13.6129656036,1.31116734195
1540.0,13.3941886274,1.31114423675
1541.0,13.1708749494,1.31112082007
1542.0,12.9619304476,1.311097
1543.0,12.786261,1.31107268459
1544.0,12.6452222066,1.31104794185
1545.0,12.5220387332,1.31102291984
1546.0,12.4084200565,1.31099776661
1547.0,12.2960756532,1.31097263019
1548.0,12.176715,1.31094765864
1549.0,12.0501208383,1.310923
1550.0,11.9216631881,1.31089875182
1551.0,11.7914324438,1.31087484755
1552.0,11.659519,1.31085118909
1553.0,11.5223826656,1.31082767836
1554.0,11.3800550313,1.31080421726
1555.0,11.2379841641,1.31078070772
1556.0,11.1016181313,1.31075705162
1557.0,10.976405,1.31073315089
1558.0,10.8636624257,1.31070890744
1559.0,10.7588485469,1.31068422317
1560.0,10.6586221552,1.310659
1561.0,10.5596420424,1.3106330461
1562.0,10.458567,1.31060635109
1563.0,10.354000744,1.31057908904
1564.0,10.2481703238,1.31055143404
1565.0,10.1431695317,1.31052356015
1566.0,10.0410921597,1.31049564144
1567.0,9.944032,1.310467852
1568.0,9.85145247266,1.3104403659
1569.0,9.76166488535,1.31041335721
1570.0,9.67503486172,1.310387
1571.0,9.59192802539,1.31036115674
1572.0,9.51271,1.31033556379
1573.0,9.43817653103,1.31031020604
1574.0,9.36773560753,1.31028506841
1575.0,9.29967121851,1.31026013579
1576.0,9.23226735299,1.31023539308
1577.0,9.163808,1.3102108252
1578.0,9.09429300933,1.31018641705
1579.0,9.02486610848,1.31016215353
1580.0,8.95552710296,1.31013801955
1581.0,8.88627579829,1.310114
1582.0,8.817112,1.3100903349
1583.0,8.74803553256,1.31006715283
1584.0,8.6790462496,1.31004427158
1585.0,8.61014400035,1.31002150893
1586.0,8.54132863407,1.30999868267
1587.0,8.4726,1.30997561057
1588.0,8.40252592881,1.30995211042
1589.0,8.3311062483,1.309928
1590.0,8.26048880338,1.30990327418
1591.0,8.19282143897,1.30987809372
1592.0,8.130252,1.30985252522
1593.0,8.07344166828,1.30982663528
1594.0,8.02052575839,1.3098004905
1595.0,7.96986331435,1.30977415749
1596.0,7.9198133802,1.30974770284
1597.0,7.868735,1.30972119317
1598.0,7.8160921169,1.30969469507
1599.0,7.76297849697,1.30966827515
1600.0,7.71019791858,1.309642
1601.0,7.65855416013,1.30961581365
1602.0,7.608851,1.30958961138
1603.0,7.56078105155,1.30956338667
1604.0,7.51371955647,1.30953713302
1605.0,7.46799423561,1.30951084391
1606.0,7.42393280983,1.30948451283
1607.0,7.381863,1.30945813326
1608.0,7.34195876577,1.30943169871
1609.0,7.3038438912,1.30940520266
1610.0,7.26702083374,1.30937863859
1611.0,7.23099205086,1.309352
1612.0,7.19526,1.30932533401
1613.0,7.16015801346,1.30929867557
1614.0,7.12603715289,1.30927199989
1615.0,7.09242646977,1.3092452822
1616.0,7.05885501559,1.3092184977
1617.0,7.02485184184,1.30919162162
1618.0,6.989946,1.30916462916
1619.0,6.95324712447,1.30913749556
1620.0,6.91510116389,1.30911019602
1621.0,6.87689164107,1.30908270576
1622.0,6.84000207883,1.309055
1623.0,6.805816,1.30902680238
1624.0,6.77466475851,1.30899803222
1625.0,6.74543387096,1.3089689583
1626.0,6.71733810416,1.30893984936
1627.0,6.6895922249,1.30891097415
1628.0,6.661411,1.30888260145
1629.0,6.63235824137,1.308855
1630.0,6.602865673,1.30882827488
1631.0,6.57344992979,1.3088022529
1632.0,6.54462764662,1.3087767854
1633.0,6.51691545839,1.30875172371
1634.0,6.49083,1.30872691916
1635.0,6.46650165626,1.30870222311
1636.0,6.44345007582,1.30867748688
1637.0,6.42127578933,1.30865256182
1638.0,6.39957932744,1.30862729926
1639.0,6.37796122078,1.30860155055
1640.0,6.356022,1.30857516701
1641.0,6.33346061324,1.308548
1642.0,6.31074748627,1.30851969946
1643.0,6.28864036616,1.308490289
1644.0,6.267897,1.30846018038
1645.0,6.24898245282,1.30842978539
1646.0,6.23141414701,1.30839951581
1647.0,6.21452836569,1.30836978342
1648.0,6.197661392,1.308341
1649.0,6.18014950906,1.30831324803
1650.0,6.161329,1.30828622846
1651.0,6.13970934023,1.30825978075
1652.0,6.11571609397,1.3082337444
1653.0,6.0915596776,1.30820795889
1654.0,6.06945050748,1.30818226368
1655.0,6.051599,1.30815649828
1656.0,6.03786386847,1.30813050215
1657.0,6.02613322895,1.30810411477
1658.0,6.01566160188,1.30807717564
1659.0,6.00570350773,1.30804952422
1660.0,5.99551346695,1.308021
1661.0,5.984346,1.30799142059
1662.0,5.97164541904,1.30796083807
1663.0,5.95800118498,1.30792944362
1664.0,5.9443855414,1.30789742841
1665.0,5.93177073188,1.30786498363
1666.0,5.921129,1.30783230046
1667.0,5.912466651,1.30779957007
1668.0,5.90487772125,1.30776698366
1669.0,5.897966051,1.30773473239
1670.0,5.89133548053,1.30770300744
1671.0,5.88458985011,1.307672
1672.0,5.877333,1.3076418008
1673.0,5.86828019955,1.30761222124
1674.0,5.8577478945,1.30758303354
1675.0,5.84774168966,1.3075540099
1676.0,5.84026718989,1.30752492252
1677.0,5.83733,1.30749554361
1678.0,5.8374477037,1.30746564537
1679.0,5.83774196296,1.307435
1680.0,5.8381245,1.30740348172
1681.0,5.83850703704,1.30737121999
1682.0,5.8388012963,1.30733836992
1683.0,5.838919,1.30730508659
1684.0,5.83848477778,1.30727152511
1685.0,5.83739922222,1.30723784055
1686.0,5.835988,1.30720418801
1687.0,5.83457677778,1.3071707226
1688.0,5.83349122222,1.3071375994
1689.0,5.833057,1.3071049735
1690.0,5.852931,1.307073
1691.0,5.86000952587,1.3070417031
1692.0,5.86562413347,1.30701091119
1693.0,5.87005457333,1.3069804856
1694.0,5.87358059598,1.3069502877
1695.0,5.87648195194,1.30692017884
1696.0,5.87903839175,1.30689002037
1697.0,5.88152966592,1.30685967364
1698.0,5.88423552501,1.306829
1699.0,5.88743571952,1.30679806689
1700.0,5.89141,1.30676703865
1701.0,5.8955767594,1.30673592197
1702.0,5.89948957635,1.30670472359
1703.0,5.90363097987,1.3066734502
1704.0,5.90848349897,1.30664210851
1705.0,5.91452966267,1.30661070524
1706.0,5.922252,1.3065792471
1707.0,5.93759700784,1.30654774079
1708.0,5.9618963371,1.30651619303
1709.0,5.98871024781,1.30648461053
1710.0,6.011599,1.306453
1711.0,6.02929778422,1.30642135924
1712.0,6.04522986184,1.30638967936
1713.0,6.05998759912,1.30635795705
1714.0,6.07416336233,1.30632618899
1715.0,6.08834951776,1.30629437188
1716.0,6.10313843167,1.30626250239
1717.0,6.11912247032,1.30623057722
1718.0,6.136894,1.30619859304
1719.0,6.15677663436,1.30616654654
1720.0,6.1784570558,1.30613443441
1721.0,6.2015722337,1.30610225334
1722.0,6.22575913744,1.30607
1723.0,6.25065473642,1.30603765007
1724.0,6.275896,1.30600519146
1725.0,6.30247834439,1.30597263921
1726.0,6.33094856559,1.30594000836
1727.0,6.36027070267,1.30590731397
1728.0,6.38940879471,1.30587457109
1729.0,6.4173268808,1.30584179475
1730.0,6.442989,1.305809
1731.0,6.46456084641,1.30577620416
1732.0,6.4819173225,1.3057434073
1733.0,6.49658627993,1.30571059859
1734.0,6.51009557039,1.3056777672
1735.0,6.52397304553,1.30564490229
1736.0,6.53974655703,1.30561199304
1737.0,6.55894395656,1.30557902863
1738.0,6.58309309579,1.30554599822
1739.0,6.61372182638,1.30551289097
1740.0,6.652358,1.30547969608
1741.0,6.77456539946,1.3054464027
1742.0,6.917996,1.305413
1743.0,6.99501114853,1.30537947775
1744.0,7.05793687814,1.30534583838
1745.0,7.11138035846,1.30531209006
1746.0,7.15994875912,1.30527824095
1747.0,7.20824924975,1.30524429922
1748.0,7.260889,1.30521027304
1749.0,7.31702171718,1.30517617058
1750.0,7.3727953795,1.305142
1751.0,7.42830856297,1.30510777902
1752.0,7.48365984355,1.30507351527
1753.0,7.53894779723,1.30503920182
1754.0,7.594271,1.30500483173
1755.0,7.65014475934,1.30497039808
1756.0,7.7065934486,1.30493589392
1757.0,7.76297924253,1.30490131232
1758.0,7.8186643159,1.30486664634
1759.0,7.87301084347,1.30483188906
1760.0,7.925381,1.30479703353
1761.0,7.97368961287,1.30476207282
1762.0,8.01736808338,1.304727
1763.0,8.05805344718,1.3046917667
1764.0,8.0973827399,1.30465635225
1765.0,8.13699299721,1.30462079127
1766.0,8.17852125474,1.30458511837
1767.0,8.22360454813,1.30454936818
1768.0,8.27387991305,1.30451357531
1769.0,8.33098438512,1.30447777438
1770.0,8.396555,1.304442
1771.0,8.496969414,1.30440610327
1772.0,8.62186891812,1.30436998734
1773.0,8.717786,1.30433376491
1774.0,8.7758198434,1.3042975487
1775.0,8.82431529891,1.30426145139
1776.0,8.86567335441,1.3042255857
1777.0,8.90229499783,1.30419006434
1778.0,8.93658121706,1.304155
1779.0,8.970933,1.30412051807
1780.0,9.00758246665,1.30408659367
1781.0,9.04532132337,1.30405311414
1782.0,9.0813899376,1.30401996681
1783.0,9.11302867682,1.30398703902
1784.0,9.13747790847,1.3039542181
1785.0,9.151978,1.30392139138
1786.0,9.16020466845,1.3038884462
1787.0,9.16757413815,1.30385526989
1788.0,9.17393753752,1.30382174978
1789.0,9.17914599498,1.30378777321
1790.0,9.18305063893,1.3037532275
1791.0,9.1855025978,1.303718
1792.0,9.186353,1.30368203728
1793.0,9.18408225926,1.30364542961
1794.0,9.17840540741,1.30360827986
1795.0,9.1710255,1.30357069088
1796.0,9.16364559259,1.30353276554
1797.0,9.15796874074,1.30349460671
1798.0,9.155698,1.30345631724
1799.0,9.16144414286,1.303418
1800.0,9.17626314286,1.30337944894
1801.0,9.19652585714,1.303340453
1802.0,9.21860314286,1.30330110752
1803.0,9.23886585714,1.30326150784
1804.0,9.25368485714,1.30322174929
1805.0,9.259431,1.30318192723
1806.0,9.249024032,1.30314213698
1807.0,9.224207416,1.3031024739
1808.0,9.194587584,1.30306303332
1809.0,9.169770968,1.30302391058
1810.0,9.159364,1.30298520103
1811.0,9.16025443009,1.302947
1812.0,9.16271917994,1.30290962902
1813.0,9.16644843895,1.30287313722
1814.0,9.1711323965,1.30283721136
1815.0,9.17646124199,1.30280153822
1816.0,9.18212516481,1.30276580455
1817.0,9.18781435435,1.30272969713
1818.0,9.193219,1.30269290272
1819.0,9.19827038523,1.30265510809
1820.0,9.20336360586,1.302616
1821.0,9.20888456976,1.30257529404
1822.0,9.21521918482,1.30253314235
1823.0,9.22275335894,1.30248988649
1824.0,9.231873,1.30244586805
1825.0,9.24486792349,1.3024014286
1826.0,9.26316618577,1.30235690973
1827.0,9.28586105601,1.302312653
1828.0,9.31204580338,1.302269
1829.0,9.34081369705,1.30222610658
1830.0,9.3712580062,1.30218379037
1831.0,9.402472,1.30214188561
1832.0,9.43654503719,1.30210022653
1833.0,9.47550318227,1.30205864738
1834.0,9.51834476307,1.30201698239
1835.0,9.56406810742,1.3019750658
1836.0,9.61167154314,1.30193273184
1837.0,9.66015339806,1.30188981477
1838.0,9.708512,1.30184614881
1839.0,9.75422070951,1.3018015682
1840.0,9.79741455693,1.30175590719
1841.0,9.84108437474,1.301709
1842.0,9.88822099546,1.30166023753
1843.0,9.94181525157,1.30160946052
1844.0,10.0048579756,1.30155717803
1845.0,10.08034,1.30150389911
1846.0,10.1909404814,1.3014501328
1847.0,10.3474091377,1.30139638814
1848.0,10.5348426433,1.30134317419
1849.0,10.7383376727,1.301291
1850.0,10.9429909001,1.3012394851
1851.0,11.133899,1.30118794203
1852.0,11.3027688087,1.30113641938
1853.0,11.456571869,1.30108496569
1854.0,11.6033019149,1.30103362955
1855.0,11.7509526806,1.30098245952
1856.0,11.9075179003,1.30093150417
1857.0,12.0809913079,1.30088081206
1858.0,12.2793666376,1.30083043176
1859.0,12.5106376236,1.30078041183
1860.0,12.782798,1.30073080085
1861.0,13.1722358317,1.30068164739
1862.0,13.7161527957,1.300633
1863.0,14.3637630438,1.30058488539
1864.0,15.0642807279,1.30053726735
1865.0,15.76692,1.30049010011
1866.0,16.4625498828,1.3004433379
1867.0,17.1832397419,1.30039693493
1868.0,17.9400042436,1.30035084543
1869.0,18.743858054,1.30030502363
1870.0,19.6058158394,1.30025942374
1871.0,20.536892266,1.300214
1872.0,21.548102,1.300168352
1873.0,22.7061875791,1.30012235826
1874.0,24.0403518618,1.30007639137
1875.0,25.505299996,1.3000308239
1876.0,27.0557371292,1.29998602844
1877.0,28.6463684092,1.29994237758
1878.0,30.2318989835,1.29990024391
1879.0,31.767034,1.29986
1880.0,33.1728194392,1.29982199787
1881.0,34.4376738658,1.29978598674
1882.0,35.6173613031,1.29975143496
1883.0,36.7676457745,1.29971781093
1884.0,37.9442913036,1.29968458301
1885.0,39.2030619137,1.29965121959
1886.0,40.5997216283,1.29961718903
1887.0,42.1900344708,1.2995819597
1888.0,44.0297644646,1.299545
1889.0,46.1746756332,1.29950548242
1890.0,48.680532,1.29946333455
1891.0,53.1251905162,1.29941915742
1892.0,59.8532552362,1.29937355204
1893.0,67.0706108381,1.29932711943
1894.0,72.983142,1.29928046059
1895.0,77.4435742651,1.29923417656
1896.0,81.5382340725,1.29918886834
1897.0,85.3234074436,1.29914513695
1898.0,88.8553804003,1.29910358341
1899.0,92.1904389641,1.29906480872
1900.0,95.3848691568,1.29902941391
1901.0,98.494957,1.298998
1902.0,101.621699006,1.29896781135
1903.0,104.762834614,1.29893652016
1904.0,107.819764233,1.29890536916
1905.0,110.693888271,1.29887560107
1906.0,113.286607139,1.29884845864
1907.0,115.499321245,1.29882518458
1908.0,117.233431,1.29880702163
1909.0,118.579995181,1.29879521253
1910.0,119.722205067,1.298791
1911.0,120.699659818,1.29879106859
1912.0,121.551958594,1.2987912524
1913.0,122.318700558,1.29879151852
1914.0,123.039484868,1.29879183402
1915.0,123.753910685,1.29879216598
1916.0,124.50157717,1.29879248148
1917.0,125.322083484,1.2987927476
1918.0,126.255028787,1.29879293141
1919.0,127.340012238,1.298793
1920.0,128.616633,1.29879177761
1921.0,130.658508321,1.29878829699
1922.0,133.109892439,1.29878283799
1923.0,134.61634,1.29877568043
1924.0,135.16152031,1.29876710414
1925.0,135.630260023,1.29875738897
1926.0,136.019849808,1.29874681475
1927.0,136.32758033,1.2987356613
1928.0,136.550742258,1.29872420847
1929.0,136.686626259,1.29871273609
1930.0,136.732523,1.298701524
1931.0,136.71244973,1.29869085202
1932.0,136.653498325,1.298681
1933.0,136.557571392,1.29867162024
1934.0,136.426571536,1.29866215165
1935.0,136.262401364,1.29865255394
1936.0,136.066963484,1.29864278681
1937.0,135.842160501,1.29863280999
1938.0,135.589895021,1.29862258319
1939.0,135.312069652,1.29861206611
1940.0,135.010587,1.29860121848
1941.0,134.484195314,1.29859
1942.0,133.626574733,1.29857843841
1943.0,132.582025694,1.29856656634
1944.0,131.494848637,1.29855435083
1945.0,130.509344,1.29854175893
1946.0,129.640379595,1.29852875767
1947.0,128.797666728,1.29851531411
1948.0,127.967771082,1.29850139528
1949.0,127.137258337,1.29848696823
1950.0,126.292694175,1.298472
1951.0,125.420644278,1.29845652392
1952.0,124.507674325,1.29844054329
1953.0,123.54035,1.29842398012
1954.0,122.488767112,1.29840675641
1955.0,121.351508386,1.29838879416
1956.0,120.157869874,1.29837001539
1957.0,118.937147627,1.29835034211
1958.0,117.718637698,1.29832969631
1959.0,116.531636138,1.298308
1960.0,115.405439,1.29828456512
1961.0,114.335266702,1.29825899882
1962.0,113.292718086,1.29823166592
1963.0,112.271656834,1.29820293125
1964.0,111.265946632,1.29817315961
1965.0,110.269451163,1.29814271585
1966.0,109.276034113,1.29811196478
1967.0,108.279559163,1.29808127122
1968.0,107.27389,1.298051
1969.0,106.262092417,1.29802092843
1970.0,105.251322046,1.29799059253
1971.0,104.241577329,1.29795999521
1972.0,103.232856707,1.29792913937
1973.0,102.225158622,1.2978980279
1974.0,101.218481515,1.29786666371
1975.0,100.212823827,1.2978350497
1976.0,99.208184,1.29780318875
1977.0,98.2000340719,1.29777108378
1978.0,97.1864326206,1.29773873769
1979.0,96.1712578974,1.29770615336
1980.0,95.1583881536,1.2976733337
1981.0,94.1517016407,1.29764028162
1982.0,93.1550766099,1.297607
1983.0,92.1723913125,1.2975735866
1984.0,91.207524,1.29754005709
1985.0,90.2576519975,1.29750629122
1986.0,89.3175901674,1.29747216879
1987.0,88.3876730667,1.29743756955
1988.0,87.4682352524,1.29740237328
1989.0,86.5596112816,1.29736645975
1990.0,85.6621357112,1.29732970873
1991.0,84.7761430983,1.297292
1992.0,83.901968,1.29725314086
1993.0,83.0430150437,1.29721311875
1994.0,82.2001223026,1.29717208368
1995.0,81.3697745022,1.29713018561
1996.0,80.5484563678,1.29708757454
1997.0,79.7326526249,1.29704440046
1998.0,78.9188479991,1.29700081335
1999.0,78.1035272156,1.2969569632
2000.0,77.283175,1.296913
2001.0,76.4500519852,1.29686870607
2002.0,75.6041872965,1.29682381307
2003.0,74.7537183981,1.29677839494
2004.0,73.9067827538,1.29673252564
2005.0,73.0715178278,1.29668627912
2006.0,72.2560610842,1.29663972935
2007.0,71.4685499869,1.29659295026
2008.0,70.717122,1.29654601583
2009.0,70.003524494,1.296499
2010.0,69.319483627,1.29645163685
2011.0,68.6581050447,1.29640371685
2012.0,68.0124943928,1.2963553985
2013.0,67.3757573167,1.29630684032
2014.0,66.7409994621,1.29625820083
2015.0,66.1013264747,1.29620963853
2016.0,65.449844,1.29616131195
2017.0,64.7859960083,1.2961133796
2018.0,64.1161098991,1.296066
2019.0,63.4436164622,1.29601927527
2020.0,62.7719464872,1.29597310382
2021.0,62.1045307638,1.29592733857
2022.0,61.4448000817,1.29588183242
2023.0,60.7961852305,1.29583643829
2024.0,60.162117,1.2957910091
2025.0,59.5400653882,1.29574539776
2026.0,58.9254228164,1.29569945719
2027.0,58.3185037092,1.29565304029
2028.0,57.7196224911,1.295606
2029.0,57.1290935865,1.29555844763
2030.0,56.5472314202,1.29551060243
2031.0,55.9743504165,1.29546247919
2032.0,55.410765,1.29541409268
2033.0,54.8481851194,1.29536545768
2034.0,54.2824788547,1.29531658898
2035.0,53.7201978272,1.29526750137
2036.0,53.1678936585,1.29521820961
2037.0,52.63211797,1.2951687285
2038.0,52.1194223831,1.29511907282
2039.0,51.6363585193,1.29506925735
2040.0,51.189478,1.29501929686
2041.0,50.7833462899,1.29496920615
2042.0,50.4123037655,1.294919
2043.0,50.0675644164,1.29486836899
2044.0,49.7403422322,1.29481712019
2045.0,49.4218512023,1.29476544313
2046.0,49.1033053162,1.29471352731
2047.0,48.7759185634,1.29466156225
2048.0,48.4309049334,1.29460973748
2049.0,48.0594784158,1.2945582425
2050.0,47.652853,1.29450726684
2051.0,47.1911925187,1.294457
2052.0,46.6743060647,1.29440771826
2053.0,46.1228755179,1.29435938374
2054.0,45.5575827582,1.2943117147
2055.0,44.9991096654,1.29426442942
2056.0,44.4681381194,1.29421724617
2057.0,43.98535,1.29416988323
2058.0,43.5441744946,1.29412205886
2059.0,43.1222064128,1.29407349136
2060.0,42.7163760676,1.29402389898
2061.0,42.3236137722,1.293973
2062.0,41.9408498396,1.29392039015
2063.0,41.565014583,1.29386613614
2064.0,41.1930383155,1.2938106627
2065.0,40.8218513501,1.29375439459
2066.0,40.448384,1.29369775655
2067.0,40.0718990259,1.29364117333
2068.0,39.6952872816,1.29358506967
2069.0,39.32092122,1.29352987031
2070.0,38.9511732939,1.293476
2071.0,38.588415956,1.29342365491
2072.0,38.2350216592,1.29337252018
2073.0,37.8933628563,1.29332225401
2074.0,37.565812,1.29327251461
2075.0,37.2519907123,1.29322296019
2076.0,36.9488602674,1.29317324896
2077.0,36.6548025968,1.29312303911
2078.0,36.3681996321,1.29307198887
2079.0,36.0874333048,1.29301975643
2080.0,35.8108855464,1.292966
2081.0,35.5369382885,1.2929102797
2082.0,35.2639734625,1.29285270337
2083.0,34.990373,1.29279375076
2084.0,34.726118372,1.29273390163
2085.0,34.4777672991,1.29267363576
2086.0,34.2385660867,1.29261343289
2087.0,34.0017610406,1.2925537728
2088.0,33.7605984664,1.29249513525
2089.0,33.5083246696,1.292438
2090.0,33.2381859558,1.29238224871
2091.0,32.9434286308,1.29232733633
2092.0,32.617299,1.29227310253
2093.0,32.1865451603,1.29221938701
2094.0,31.621759858,1.29216602945
2095.0,30.9819563729,1.29211286954
2096.0,30.3261479849,1.29205974695
2097.0,29.7133479738,1.29200650137
2098.0,29.2025696193,1.29195297249
2099.0,28.8528262015,1.291899
2100.0,30.458487,1.29184500302
2101.0,30.4361168233,1.29179138046
2102.0,30.3717120755,1.29173794166
2103.0,30.2693314302,1.29168449596
2104.0,30.1330335607,1.2916308527
2105.0,29.9668771405,1.29157682123
2106.0,29.7749208432,1.29152221088
2107.0,29.5612233422,1.291466831
2108.0,29.3298433109,1.29141049092
2109.0,29.0848394229,1.291353
2110.0,28.8302703516,1.29129382592
2111.0,28.5701947705,1.29123287058
2112.0,28.308671353,1.2911705946
2113.0,28.0497587727,1.2911074586
2114.0,27.7975157031,1.29104392319
2115.0,27.5560008175,1.29098044901
2116.0,27.3292727895,1.29091749667
2117.0,27.1213902925,1.29085552679
2118.0,26.936412,1.290795
2119.0,26.766298331,1.29073583396
2120.0,26.6001124879,1.29067752348
2121.0,26.4375673194,1.2906198949
2122.0,26.2783756741,1.29056277455
2123.0,26.1222504007,1.29050598877
2124.0,25.968904348,1.29044936388
2125.0,25.8180503645,1.29039272622
2126.0,25.6694012989,1.29033590214
2127.0,25.52267,1.29027871795
2128.0,25.378104135,1.290221
2129.0,25.2360316605,1.29016289465
2130.0,25.0962858589,1.29010466268
2131.0,24.9587000128,1.290046302
2132.0,24.8231074045,1.28998781056
2133.0,24.6893413166,1.28992918629
2134.0,24.5572350316,1.28987042711
2135.0,24.4266218319,1.28981153096
2136.0,24.297335,1.28975249577
2137.0,24.1680443285,1.28969331947
2138.0,24.0382082705,1.289634
2139.0,23.9088430994,1.28957453596
2140.0,23.7809650884,1.28951492798
2141.0,23.6555905107,1.28945517705
2142.0,23.5337356398,1.28939528414
2143.0,23.4164167488,1.28933525024
2144.0,23.3046501111,1.28927507631
2145.0,23.199452,1.28921476335
2146.0,23.1001521833,1.28915431232
2147.0,23.0050584935,1.28909372421
2148.0,22.9136543012,1.289033
2149.0,22.8254229767,1.2889721446
2150.0,22.7398478906,1.28891115903
2151.0,22.6564124132,1.28885003838
2152.0,22.574599915,1.28878877774
2153.0,22.4938937665,1.28872737223
2154.0,22.413777338,1.28866581694
2155.0,22.333734,1.28860410698
2156.0,22.2543098144,1.28854223743
2157.0,22.1763143048,1.2884802034
2158.0,22.0996260349,1.288418
2159.0,22.024123568,1.2883556318
2160.0,21.9496854676,1.28829310553
2161.0,21.8761902972,1.28823041948
2162.0,21.8035166201,1.28816757195
2163.0,21.7315429999,1.28810456122
2164.0,21.660148,1.28804138559
2165.0,21.5878766877,1.28797804336
2166.0,21.5141037002,1.28791453283
2167.0,21.4399519555,1.28785085227
2168.0,21.3665443717,1.287787
2169.0,21.295003867,1.28772297316
2170.0,21.2264533593,1.28765877094
2171.0,21.1620157669,1.28759439467
2172.0,21.1028140077,1.2875298457
2173.0,21.049971,1.28746512537
2174.0,21.0027300557,1.287400235
2175.0,20.9591583419,1.28733517594
2176.0,20.9186145592,1.28726994953
2177.0,20.8804574082,1.2872045571
2178.0,20.8440455894,1.287139
2179.0,20.8087378035,1.28707328171
2180.0,20.773892751,1.28700740181
2181.0,20.7388691325,1.28694135575
2182.0,20.7030256486,1.286875139
2183.0,20.665721,1.28680874703
2184.0,20.6260515082,1.2867421753
2185.0,20.5841801096,1.28667541926
2186.0,20.5410654269,1.28660847439
2187.0,20.4976660828,1.28654133615
2188.0,20.4549407,1.286474
2189.0,20.4138479012,1.28640646467
2190.0,20.3753463091,1.28633873296
2191.0,20.3403945464,1.28627080647
2192.0,20.3099512358,1.28620268677
2193.0,20.284975,1.28613437546
2194.0,20.2639924954,1.28606587411
2195.0,20.2447748678,1.2859971843
2196.0,20.227147474,1.28592830762
2197.0,20.2109356707,1.28585924566
2198.0,20.1959648147,1.28579
2199.0,20.1820602629,1.2857205644
2200.0,20.169047372,1.2856509326
2201.0,20.1567514988,1.28558110615
2202.0,20.144998,1.28551108658
2203.0,20.133100186,1.28544087543
2204.0,20.1207547428,1.28537047425
2205.0,20.1083620908,1.28529988458
2206.0,20.0963226506,1.28522910795
2207.0,20.0850368426,1.28515814591
2208.0,20.0749050871,1.285087
2209.0,20.0663278046,1.28501568599
2210.0,20.0597054157,1.28494420994
2211.0,20.0554383407,1.28487255876
2212.0,20.053927,1.28480071941
2213.0,20.0550682203,1.28472867881
2214.0,20.0583376099,1.28465642391
2215.0,20.063503762,1.28458394164
2216.0,20.0703352698,1.28451121894
2217.0,20.0786007263,1.28443824275
2218.0,20.0880687246,1.284365
2219.0,20.0985078581,1.28429116469
2220.0,20.1096867197,1.28421656752
2221.0,20.1213739026,1.28414143046
2222.0,20.133338,1.28406597548
2223.0,20.1473783472,1.28399042456
2224.0,20.165119022,1.28391499968
2225.0,20.1860657308,1.2838399228
2226.0,20.2097241803,1.28376541592
2227.0,20.2356000771,1.28369170099
2228.0,20.2631991277,1.283619
2229.0,20.2920270387,1.28354765318
2230.0,20.3215895167,1.28347763051
2231.0,20.3513922683,1.28340859858
2232.0,20.380941,1.28334022396
2233.0,20.4110078304,1.28327217326
2234.0,20.442623012,1.28320411305
2235.0,20.4756794522,1.28313570992
2236.0,20.5100700584,1.28306663047
2237.0,20.5456877382,1.28299654127
2238.0,20.5824253989,1.28292510892
2239.0,20.6201759479,1.282852
2240.0,20.6588322929,1.28277712962
2241.0,20.6982873411,1.28270078531
2242.0,20.738434,1.28262319234
2243.0,20.779104568,1.28254457596
2244.0,20.8203803929,1.28246516141
2245.0,20.8625279558,1.28238517395
2246.0,20.9058137383,1.28230483882
2247.0,20.9505042217,1.28222438129
2248.0,20.9968658873,1.2821440266
2249.0,21.0451652166,1.282064
2250.0,21.0956686909,1.28198379668
2251.0,21.1486427915,1.28190290149
2252.0,21.204354,1.28182152414
2253.0,21.2642747373,1.28173987438
2254.0,21.3292227539,1.28165816194
2255.0,21.3984825252,1.28157659654
2256.0,21.4713385269,1.28149538792
2257.0,21.5470752343,1.2814147458
2258.0,21.6249771229,1.28133487991
2259.0,21.7043286684,1.281256
2260.0,21.784414346,1.28117849848
2261.0,21.8645186314,1.28110238931
2262.0,21.943926,1.28102731454
2263.0,22.0231638818,1.28095291621
2264.0,22.1032977453,1.28087883637
2265.0,22.1844191239,1.28080471706
2266.0,22.266619551,1.28073020032
2267.0,22.34999056,1.28065492821
2268.0,22.4346236841,1.28057854275
2269.0,22.5206104568,1.280500686
2270.0,22.6080424114,1.280421
2271.0,22.6970110814,1.28033902725
2272.0,22.787608,1.28025487101
2273.0,22.8793934948,1.28016901449
2274.0,22.9720443293,1.28008194089
2275.0,23.0658266906,1.27999413341
2276.0,23.1610067658,1.27990607526
2277.0,23.257850742,1.27981824964
2278.0,23.3566248063,1.27973113976
2279.0,23.457595146,1.27964522881
2280.0,23.561027948,1.279561
2281.0,23.6671893996,1.27947868806
2282.0,23.7763456879,1.27939793718
2283.0,23.888763,1.27931834478
2284.0,24.0062725038,1.27923950827
2285.0,24.1298258665,1.27916102505
2286.0,24.258370024,1.27908249254
2287.0,24.3908519123,1.27900350815
2288.0,24.5262184672,1.27892366929
2289.0,24.6634166247,1.27884257337
2290.0,24.8013933209,1.27875981781
2291.0,24.9390954915,1.278675
2292.0,25.0754700726,1.27858765021
2293.0,25.209464,1.27849790708
2294.0,25.3403449755,1.2784062806
2295.0,25.4687258267,1.27831328074
2296.0,25.5955711784,1.2782194175
2297.0,25.7218456556,1.27812520086
2298.0,25.8485138831,1.2780311408
2299.0,25.9765404859,1.27793774732
2300.0,26.1068900889,1.27784553039
2301.0,26.2405273169,1.277755
2302.0,26.3784167948,1.27766640143
2303.0,26.5215231475,1.27757936076
2304.0,26.670811,1.2774934592
2305.0,26.8281707211,1.27740827797
2306.0,26.9939273159,1.27732339827
2307.0,27.1666973632,1.27723840132
2308.0,27.3450974421,1.27715286831
2309.0,27.5277441315,1.27706638047
2310.0,27.7132540104,1.276978519
2311.0,27.9002436578,1.2768888651
2312.0,28.0873296525,1.276797
2313.0,28.2731285736,1.27670150667
2314.0,28.456257,1.27660257236
2315.0,28.6375881138,1.27650218473
2316.0,28.8190257528,1.27640233139
2317.0,29.0007324799,1.276305
2318.0,29.1828708578,1.27621031887
2319.0,29.3656034494,1.27611693108
2320.0,29.5490928173,1.27602459638
2321.0,29.7335015244,1.27593307452
2322.0,29.9189921334,1.27584212524
2323.0,30.1057272072,1.2757515083
2324.0,30.2938693084,1.27566098346
2325.0,30.483581,1.27557031045
2326.0,30.6714940922,1.27547924904
2327.0,30.8554302187,1.27538755897
2328.0,31.037336677,1.275295
2329.0,31.2191607647,1.27520183189
2330.0,31.4028497795,1.27510846549
2331.0,31.5903510188,1.2750148872
2332.0,31.7836117804,1.27492108341
2333.0,31.9845793617,1.27482704052
2334.0,32.1952010603,1.27473274492
2335.0,32.4174241739,1.274638183
2336.0,32.653196,1.27454334115
2337.0,32.9179082637,1.27444820578
2338.0,33.2197342636,1.27435276326
2339.0,33.5497936581,1.274257
2340.0,33.8992061053,1.27416136397
2341.0,34.2590912633,1.27406613656
2342.0,34.6205687905,1.27397105426
2343.0,34.974758345,1.27387585357
2344.0,35.312779585,1.273780271
2345.0,35.6257521687,1.27368404304
2346.0,35.9047957543,1.2735869062
2347.0,36.14103,1.27348859698
2348.0,36.3403737065,1.27338885187
2349.0,36.517756763,1.27328740738
2350.0,36.6778154601,1.273184
2351.0,36.8251860888,1.27307774778
2352.0,36.9645049399,1.27296839029
2353.0,37.100408304,1.27285659637
2354.0,37.2375324721,1.27274303483
2355.0,37.380513735,1.27262837451
2356.0,37.5339883834,1.27251328423
2357.0,37.7025927081,1.27239843281
2358.0,37.890963,1.27228448908
2359.0,38.1026801681,1.27217212187
2360.0,38.3359658254,1.272062
2361.0,38.587417319,1.27195401995
2362.0,38.8536319957,1.27184743462
2363.0,39.1312072024,1.27174194748
2364.0,39.416740286,1.27163726197
2365.0,39.7068285935,1.27153308157
2366.0,39.9980694717,1.27142910972
2367.0,40.2870602676,1.2713250499
2368.0,40.570398328,1.27122060556
2369.0,40.844681,1.27111548015
2370.0,41.1116362901,1.27100937715
2371.0,41.3758694169,1.270902
2372.0,41.6382935455,1.27079307111
2373.0,41.8998218408,1.27068273523
2374.0,42.1613674678,1.27057132935
2375.0,42.4238435914,1.27045919043
2376.0,42.6881633766,1.27034665548
2377.0,42.9552399884,1.27023406147
2378.0,43.2259865916,1.27012174539
2379.0,43.5013163513,1.27001004422
2380.0,43.7821424325,1.26989929494
2381.0,44.069378,1.26978983454
2382.0,44.362936128,1.269682
2383.0,44.6619101135,1.26957672646
2384.0,44.9659834562,1.26947382594
2385.0,45.2748396555,1.26937195073
2386.0,45.5881622111,1.26926975314
2387.0,45.9056346224,1.26916588546
2388.0,46.2269403891,1.269059
2389.0,46.5517630106,1.2689492156
2390.0,46.8797859866,1.26883767887
2391.0,47.2106928165,1.26872458381
2392.0,47.544167,1.26861012438
2393.0,47.8826580166,1.26849449455
2394.0,48.22805932,1.26837788831
2395.0,48.5792203712,1.26826049963
2396.0,48.9349906309,1.26814252248
2397.0,49.2942195601,1.26802415084
2398.0,49.6557566195,1.26790557869
2399.0,50.01845127,1.267787
2400.0,50.3811529725,1.26766815599
2401.0,50.7427111877,1.26754867914
2402.0,51.1019753766,1.26742860029
2403.0,51.457795,1.26730795029
2404.0,51.8091608239,1.26718676001
2405.0,52.1566206294,1.26706506029
2406.0,52.5013593998,1.26694288199
2407.0,52.8445621183,1.26682025596
2408.0,53.1874137684,1.26669721305
2409.0,53.5310993333,1.26657378411
2410.0,53.8768037964,1.26645
2411.0,54.2257121409,1.26632594518
2412.0,54.5790093502,1.26620163388
2413.0,54.9378804076,1.26607699162
2414.0,55.3035102964,1.26595194391
2415.0,55.677084,1.26582641625
2416.0,56.0600659134,1.26570033415
2417.0,56.4522244186,1.26557362313
2418.0,56.8522004791,1.2654462087
2419.0,57.2586350586,1.26531801636
2420.0,57.6701691204,1.26518897162
2421.0,58.0854436283,1.265059
2422.0,58.5030995457,1.26492736747
2423.0,58.9217778362,1.26479370354
2424.0,59.3401194633,1.26465847903
2425.0,59.7567653906,1.26452216476
2426.0,60.1703565816,1.26438523154
2427.0,60.579534,1.26424815019
2428.0,60.981619205,1.26411139152
2429.0,61.3763909219,1.26397542635
2430.0,61.7661758632,1.26384072549
2431.0,62.1533007415,1.26370775977
2432.0,62.5400922692,1.263577
2433.0,62.9288771589,1.26344951059
2434.0,63.3219821232,1.26332496704
2435.0,63.7217338744,1.26320175678
2436.0,64.1304591252,1.26307826723
2437.0,64.5504845881,1.26295288583
2438.0,64.9841369755,1.262824
2439.0,65.433743,1.2626918158
2440.0,65.8991516984,1.26255773987
2441.0,66.3782297691,1.26242196052
2442.0,66.8703304167,1.26228466607
2443.0,67.3748068462,1.26214604481
2444.0,67.8910122622,1.26200628508
2445.0,68.4182998696,1.26186557517
2446.0,68.9560228731,1.26172410339
2447.0,69.5035344775,1.26158205807
2448.0,70.0601878877,1.2614396275
2449.0,70.6253363083,1.261297
2450.0,71.1983329441,1.26115347073
2451.0,71.778531,1.26100840796
2452.0,72.3748324177,1.26086210965
2453.0,72.9939924441,1.26071487378
2454.0,73.6321442422,1.2605669983
2455.0,74.2854209745,1.26041878119
2456.0,74.949955804,1.26027052041
2457.0,75.6218818932,1.26012251394
2458.0,76.2973324051,1.25997505973
2459.0,76.9724405024,1.25982845576
2460.0,77.6433393477,1.259683
2461.0,78.3061621039,1.25953974447
2462.0,78.9570419338,1.25939904642
2463.0,79.592112,1.25926016162
2464.0,80.2129099681,1.25912234588
2465.0,80.8246898727,1.25898485497
2466.0,81.4291594299,1.25884694468
2467.0,82.0280263561,1.25870787079
2468.0,82.6229983675,1.2585668891
2469.0,83.2157831804,1.25842325539
2470.0,83.8080885111,1.25827622545
2471.0,84.4016220758,1.25812505505
2472.0,84.9980915907,1.257969
2473.0,85.5992047723,1.25780292188
2474.0,86.2066693366,1.2576265802
2475.0,86.822193,1.25744657757
2476.0,87.4529025512,1.25726951663
2477.0,88.1015024106,1.257102
2478.0,88.7630667421,1.2569446276
2479.0,89.4326697094,1.25679287759
2480.0,90.1053854765,1.25664566992
2481.0,90.7762882071,1.25650192455
2482.0,91.440452065,1.25636056144
2483.0,92.0929512143,1.25622050057
2484.0,92.7288598185,1.25608066188
2485.0,93.3432520417,1.25593996535
2486.0,93.9312020476,1.25579733094
2487.0,94.487784,1.2556516786
2488.0,95.022456996,1.2555019283
2489.0,95.5475840875,1.255347
2490.0,96.0625953711,1.25518781128
2491.0,96.5669209432,1.25502604379
2492.0,97.0599909004,1.25486176366
2493.0,97.5412353392,1.25469503698
2494.0,98.010084356,1.25452592986
2495.0,98.4659680474,1.25435450842
2496.0,98.9083165098,1.25418083875
2497.0,99.3365598398,1.25400498696
2498.0,99.7501281338,1.25382701917
2499.0,100.148451488,1.25364700148
2500.0,100.53096,1.253465
