Wavelength (nm),absorption coefficient,relative refractive index
350.0,9.95448979592e-05,1.35820381126
351.0,0.000105248571428,1.35800249096
352.0,0.0001105,1.35780220749
353.0,0.000115308979592,1.3576029691
354.0,0.000119685306122,1.35740478406
355.0,0.00012363877551,1.35720762758
356.0,0.000127179183673,1.35701066185
357.0,0.000130316326531,1.35681427797
358.0,0.00013306,1.3566195049
359.0,0.00013542,1.35642737162
360.0,0.000137406122449,1.35623890851
361.0,0.000139028163265,1.35605451432
362.0,0.000140295918367,1.35587309744
363.0,0.000141219183673,1.35569336915
364.0,0.000141807755102,1.35551404077
365.0,0.000142071428571,1.35533382892
366.0,0.00014202,1.35515223137
367.0,0.000141663265306,1.35497031937
368.0,0.000141011020408,1.3547893508
369.0,0.000140073061224,1.35461058355
370.0,0.000138859183673,1.35443525341
371.0,0.000137379183673,1.35426340221
372.0,0.000135642857143,1.35409412203
373.0,0.00013366,1.35392664212
374.0,0.000131440408163,1.35376019169
375.0,0.000128993877551,1.353594
376.0,0.000126330204082,1.35342787748
377.0,0.000123459183673,1.35326234355
378.0,0.000120390612245,1.35309769095
379.0,0.000117134285714,1.35293421239
380.0,0.0001137,1.35277220059
381.0,0.00011009755102,1.35261192928
382.0,0.000106336734694,1.35245330066
383.0,0.000102202238534,1.35229595992
384.0,9.73478285072e-05,1.35213954907
385.0,9.41e-05,1.35198366501
386.0,9.30325404724e-05,1.35182785203
387.0,9.22755867717e-05,1.35167257089
388.0,9.066864e-05,1.3515184427
389.0,8.756048e-05,1.35136608857
390.0,8.51e-05,1.35121613076
391.0,8.40282526316e-05,1.35106903419
392.0,8.32603368421e-05,1.35092425167
393.0,8.25685224172e-05,1.35078094392
394.0,8.20096140351e-05,1.35063827163
395.0,8.13e-05,1.35049539552
396.0,8.01829013333e-05,1.35035151641
397.0,7.85494980741e-05,1.35020681219
398.0,7.59160426667e-05,1.35006240548
399.0,7.1080032e-05,1.34991945436
400.0,6.63e-05,1.34977911331
401.0,6.25549894737e-05,1.34964172534
402.0,5.92586526316e-05,1.34950646549
403.0,5.67095578947e-05,1.34937253254
404.0,5.46319578947e-05,1.3492391253
405.0,5.3e-05,1.34910549186
406.0,5.18210947368e-05,1.34897167736
407.0,5.08331789474e-05,1.34883811503
408.0,4.97032693498e-05,1.34870519891
409.0,4.84389226006e-05,1.34857332306
410.0,4.73e-05,1.34844288151
411.0,4.63162628803e-05,1.34831418636
412.0,4.54876446247e-05,1.34818703966
413.0,4.49787365517e-05,1.34806105243
414.0,4.46164524138e-05,1.34793583557
415.0,4.44e-05,1.347811
416.0,4.428352e-05,1.34768660755
417.0,4.421056e-05,1.34756289323
418.0,4.42768e-05,1.34743972773
419.0,4.47616e-05,1.3473169817
420.0,4.54e-05,1.34719451659
421.0,4.6256e-05,1.34707203423
422.0,4.71546666667e-05,1.34694976428
423.0,4.75141333333e-05,1.3468281448
424.0,4.76656e-05,1.34670761385
425.0,4.78e-05,1.34658855668
426.0,4.79396705882e-05,1.34647074516
427.0,4.80928941176e-05,1.34635398677
428.0,4.83794695187e-05,1.34623817511
429.0,4.89479657754e-05,1.34612320379
430.0,4.95e-05,1.34600902207
431.0,4.98415979221e-05,1.34589582369
432.0,5.01692820779e-05,1.3457834713
433.0,5.07320806015e-05,1.34567176808
434.0,5.17205341353e-05,1.34556051726
435.0,5.3e-05,1.34544952066
436.0,5.47497744361e-05,1.34533873739
437.0,5.69189974937e-05,1.34522838878
438.0,5.90573727422e-05,1.34511871575
439.0,6.12338916256e-05,1.34500995926
440.0,6.35e-05,1.34490230867
441.0,6.59248551724e-05,1.34479558695
442.0,6.84102896552e-05,1.3446897059
443.0,7.0704891405e-05,1.34458461681
444.0,7.27854595986e-05,1.34448027099
445.0,7.51e-05,1.34437665457
446.0,7.79985946059e-05,1.34427397904
447.0,8.12978475343e-05,1.34417209534
448.0,8.48457842063e-05,1.34407076456
449.0,8.88817482267e-05,1.34396974782
450.0,9.22e-05,1.34386880547
451.0,9.47503079137e-05,1.3437677976
452.0,9.66102906475e-05,1.34366693502
453.0,9.68458666667e-05,1.34356649582
454.0,9.65304e-05,1.34346675811
455.0,9.62e-05,1.343368
456.0,9.594e-05,1.34327046873
457.0,9.57333333333e-05,1.34317396886
458.0,9.58525333333e-05,1.3430781145
459.0,9.67824e-05,1.34298251974
460.0,9.79e-05,1.34288679865
461.0,9.90648e-05,1.34279055593
462.0,0.000100181066667,1.34269390246
463.0,0.00010066416,1.34259752223
464.0,0.00010087872,1.34250211732
465.0,0.0001011,1.34240829116
466.0,0.000101379418776,1.34231577283
467.0,0.000101741358367,1.34222419157
468.0,0.000102494367347,1.34213323285
469.0,0.000104239346939,1.34204258218
470.0,0.000106,1.34195192618
471.0,0.000107189714286,1.34186118893
472.0,0.000108317714286,1.34177058856
473.0,0.000109813333333,1.34168031825
474.0,0.00011176,1.3415905712
475.0,0.000114,1.34150154059
476.0,0.000116683692308,1.3414133734
477.0,0.000119631589744,1.34132598172
478.0,0.000122297476923,1.34123924941
479.0,0.000124817107692,1.34115306422
480.0,0.000127,1.34106732182
481.0,0.000128672533333,1.34098205254
482.0,0.000130168711111,1.34089724356
483.0,0.000131891965812,1.34081284384
484.0,0.000133780512821,1.34072880234
485.0,0.000136,1.34064506803
486.0,0.000139043868132,1.34056159399
487.0,0.000142487208791,1.34047841708
488.0,0.000145245714286,1.34039564214
489.0,0.000147394285714,1.34031337562
490.0,0.00015,1.34023172758
491.0,0.000154274086957,1.3401508404
492.0,0.000159538782609,1.34007056876
493.0,0.000164176251874,1.33999067263
494.0,0.000168263568216,1.33991091198
495.0,0.000173,1.3398310468
496.0,0.000179853054505,1.33975079035
497.0,0.00018763257842,1.3396699566
498.0,0.000193744711421,1.33958911285
499.0,0.000198444749782,1.33950891026
500.0,0.000204,1.33943
501.0,0.000212395309771,1.33935271186
502.0,0.000222735367983,1.33927660175
503.0,0.000233393230769,1.33920115995
504.0,0.000244903384615,1.33912587678
505.0,0.000256,1.33905027056
506.0,0.000265164628763,1.33897445028
507.0,0.000274324120401,1.33889863427
508.0,0.000287215652174,1.33882293946
509.0,0.000305544347826,1.33874748277
510.0,0.000325,1.33867238114
511.0,0.000345114503368,1.3385977118
512.0,0.000364516149418,1.33852333922
513.0,0.000378392488263,1.33844930386
514.0,0.000389834366197,1.33837568423
515.0,0.000396,1.33830255885
516.0,0.000397380923077,1.33822999077
517.0,0.000398267897436,1.33815793739
518.0,0.000400367239819,1.33808631221
519.0,0.00040473719457,1.33801502862
520.0,0.000409,1.337944
521.0,0.000412481882353,1.33787316881
522.0,0.000415311529412,1.33780258949
523.0,0.000416269333333,1.33773234342
524.0,0.000416552,1.33766251196
525.0,0.000417,1.33759317811
526.0,0.000420390588235,1.33752442126
527.0,0.000425920784314,1.33745614205
528.0,0.000429355145511,1.33738819045
529.0,0.000431451095975,1.33732041646
530.0,0.000434,1.33725268512
531.0,0.000439064982456,1.33718511242
532.0,0.000444986292398,1.33711772206
533.0,0.000448208654971,1.3370504638
534.0,0.000449872280702,1.33698328742
535.0,0.000452,1.33691612028
536.0,0.000457011598086,1.33684880146
537.0,0.000463476516746,1.33678150838
538.0,0.000467801359684,1.33671448663
539.0,0.00047065884585,1.33664798181
540.0,0.000474,1.33658221966
541.0,0.000479070176263,1.33651715795
542.0,0.0004854906698,1.33645259129
543.0,0.000492808576577,1.33638831542
544.0,0.000501536432432,1.33632412607
545.0,0.000511,1.33625983259
546.0,0.000520995555556,1.33619545521
547.0,0.000531607407407,1.33613116791
548.0,0.000542467259259,1.33606714687
549.0,0.000553700444444,1.3360035683
550.0,0.000565,1.33594056631
551.0,0.000578367741935,1.33587799735
552.0,0.000590290322581,1.33581582371
553.0,0.000593857985112,1.33575404228
554.0,0.00059479964268,1.33569264993
555.0,0.000596,1.33563167849
556.0,0.000599099397993,1.33557135732
557.0,0.000603660735786,1.33551150169
558.0,0.000608285074169,1.33545183168
559.0,0.000613196746803,1.3353920674
560.0,0.000619,1.33533192581
561.0,0.000628353861893,1.33527118746
562.0,0.000637862404092,1.33521013219
563.0,0.000640555478261,1.33514916279
564.0,0.000641106608696,1.33508868202
565.0,0.000642,1.33502909223
566.0,0.000650600377358,1.33497058826
567.0,0.000665667169811,1.33491286396
568.0,0.000676807846582,1.33485554282
569.0,0.000685277196412,1.33479824833
570.0,0.000695,1.33474060398
571.0,0.000708807049606,1.33468231686
572.0,0.000725037814775,1.33462357057
573.0,0.00074043225621,1.33456470707
574.0,0.000754988269827,1.33450606786
575.0,0.000772,1.33444799444
576.0,0.000795561300345,1.33439076161
577.0,0.000822967170686,1.33433420677
578.0,0.000847833624288,1.33427811761
579.0,0.00087032227704,1.33422229711
580.0,0.000896,1.3341665987
581.0,0.000929523764706,1.33411110919
582.0,0.000968707764706,1.33405582836
583.0,0.00100980796333,1.33400073832
584.0,0.00105403701146,1.33394582121
585.0,0.0011,1.33389105947
586.0,0.00114682189269,1.33383645272
587.0,0.0011951772422,1.33378201139
588.0,0.0012449836339,1.33372774314
589.0,0.00129588204975,1.33367365564
590.0,0.001351,1.33361975654
591.0,0.00141471492296,1.3335660645
592.0,0.00148298566305,1.33351258653
593.0,0.00154657592871,1.33345928802
594.0,0.00160469223993,1.33340613338
595.0,0.001672,1.33335308705
596.0,0.00176253564792,1.33330011837
597.0,0.00186978125509,1.33324727564
598.0,0.00198254113272,1.33319456991
599.0,0.00210619509725,1.33314198714
600.0,0.002224,1.3330895114
601.0,0.00233514412088,1.33303708302
602.0,0.00243396449145,1.33298471695
603.0,0.00249797744501,1.33293246497
604.0,0.00254357459319,1.33288037885
605.0,0.002577,1.33282851037
606.0,0.0026031469648,1.33277684972
607.0,0.00262285129898,1.33272531861
608.0,0.00263298029851,1.33267405637
609.0,0.00263843522388,1.33262321517
610.0,0.002644,1.33257296426
611.0,0.00265237035294,1.33252339998
612.0,0.00266132047059,1.33247428643
613.0,0.00266783305322,1.33242535301
614.0,0.0026723805042,1.33237632912
615.0,0.002678,1.33232694414
616.0,0.00268732218182,1.33227692879
617.0,0.00269993052814,1.33222641826
618.0,0.0027149795597,1.33217588347
619.0,0.00273419321347,1.33212580026
620.0,0.002755,1.33207654149
621.0,0.00277853364631,1.33202788503
622.0,0.00280164292,1.33197963423
623.0,0.00281562963857,1.33193162101
624.0,0.00282361286722,1.33188367731
625.0,0.002834,1.33183563507
626.0,0.00286182040477,1.33178740186
627.0,0.00289524139076,1.33173912064
628.0,0.00290720371375,1.33169091309
629.0,0.00291074256553,1.33164289812
630.0,0.002916,1.33159515166
631.0,0.00294412226374,1.33154751455
632.0,0.00298386939194,1.33150001057
633.0,0.00299948689431,1.33145270418
634.0,0.00300482102439,1.33140565985
635.0,0.003012,1.33135894204
636.0,0.00303473097561,1.33131260764
637.0,0.00306572910569,1.33126664387
638.0,0.00308404343124,1.33122100063
639.0,0.00309412544056,1.33117562749
640.0,0.003108,1.33113048082
641.0,0.00314987346085,1.33108561297
642.0,0.00320384843731,1.331040996
643.0,0.00322770054171,1.33099656364
644.0,0.00323733694475,1.33095224965
645.0,0.00325,1.33090798778
646.0,0.00328544615385,1.33086371085
647.0,0.00333254358974,1.33081939292
648.0,0.00336122898551,1.33077514139
649.0,0.00337753043478,1.33073108455
650.0,0.0034,1.33068735068
651.0,0.00346013666199,1.33064394732
652.0,0.00354446047686,1.33060077973
653.0,0.00360761415668,1.33055789658
654.0,0.00365519918894,1.33051534787
655.0,0.00371,1.33047317988
656.0,0.00379256140659,1.33043137295
657.0,0.0038877999707,1.33038986855
658.0,0.0039673161952,1.33034861021
659.0,0.00403646133995,1.33030754148
660.0,0.0041,1.33026660591
661.0,0.00416431728353,1.33022575524
662.0,0.00422092196944,1.33018507171
663.0,0.00425166015038,1.3301445734
664.0,0.00426610225564,1.33010423638
665.0,0.00429,1.3300640367
666.0,0.00434478571429,1.33002394973
667.0,0.004672,1.32998397692
668.0,0.004665,1.32994415022
669.0,0.004734,1.32990450258
670.0,0.00439,1.32986506638
671.0,0.004757,1.32982581246
672.0,0.004768,1.32978673116
673.0,0.00478,1.32974785553
674.0,0.00481,1.32970921861
675.0,0.00448,1.32967084698
676.0,0.004908,1.32963271172
677.0,0.0049,1.32959478046
678.0,0.00493,1.32955702471
679.0,0.004978,1.329519416
680.0,0.00465,1.32948192587
681.0,0.005038,1.32944452871
682.0,0.00503,1.32940728868
683.0,0.005078,1.32937021432
684.0,0.005126,1.32933326705
685.0,0.00486,1.32929640827
686.0,0.005202,1.32925957903
687.0,0.00525,1.32922269435
688.0,0.005315,1.3291858888
689.0,0.005362,1.32914932571
690.0,0.00516,1.3291131684
691.0,0.005638,1.3290775766
692.0,0.00572,1.32904249335
693.0,0.005803,1.32900769011
694.0,0.005921,1.32897293597
695.0,0.00559,1.328938
696.0,0.006139,1.32890274567
697.0,0.006256,1.32886732586
698.0,0.006391,1.32883194382
699.0,0.006526,1.32879680276
700.0,0.00624,1.32876210157
701.0,0.00683,1.32872783032
702.0,0.006981,1.32869386383
703.0,0.00715,1.32866011563
704.0,0.007354,1.32862649928
705.0,0.00704,1.32859293667
706.0,0.007725,1.32855949022
707.0,0.007927,1.32852617574
708.0,0.008147,1.32849296875
709.0,0.008401,1.32845984475
710.0,0.00827,1.32842678256
711.0,0.008979,1.32839379645
712.0,0.009301,1.32836089298
713.0,0.009694,1.32832807278
714.0,0.010067,1.32829533649
715.0,0.010492,1.3282626694
716.0,0.010952,1.32823001077
717.0,0.01141,1.32819742397
718.0,0.011901,1.3281649911
719.0,0.012427,1.32813279426
720.0,0.01231,1.32810088714
721.0,0.01295,1.3280691993
722.0,0.013489,1.32803771863
723.0,0.014061,1.32800644342
724.0,0.014667,1.32797537193
725.0,0.01489,1.32794455728
726.0,0.015924,1.32791413553
727.0,0.016646,1.32788392953
728.0,0.017607,1.32785373228
729.0,0.018444,1.32782333678
730.0,0.019624,1.3277925239
731.0,0.020801,1.32776121077
732.0,0.021974,1.32772968146
733.0,0.023144,1.32769825409
734.0,0.024482,1.32766724675
735.0,0.025304,1.32763694856
736.0,0.026123,1.32760729226
737.0,0.0264373018381,1.32757802655
738.0,0.026733,1.32754890566
739.0,0.027377,1.32751968382
740.0,0.02768,1.32749012858
741.0,0.027982,1.32746025699
742.0,0.028113,1.32743025388
743.0,0.028245,1.32740029962
744.0,0.028376,1.32737057457
745.0,0.028338,1.32734124843
746.0,0.028468,1.32731226539
747.0,0.02843,1.32728352624
748.0,0.02856,1.32725497015
749.0,0.028522,1.32722653628
750.0,0.028484,1.32719816484
751.0,0.028613,1.32716992013
752.0,0.028575,1.32714182536
753.0,0.028704,1.32711381718
754.0,0.028666,1.32708583223
755.0,0.028794,1.32705780715
756.0,0.028756,1.32702968405
757.0,0.0287185,1.32700149404
758.0,0.028681,1.32697331744
759.0,0.028643,1.32694523475
760.0,0.028605,1.32691732645
761.0,0.028733,1.32688967665
762.0,0.028695,1.32686228154
763.0,0.028657,1.3268350284
764.0,0.0286193611062,1.32680780093
765.0,0.028582,1.32678048279
766.0,0.028545,1.32675294291
767.0,0.028344,1.32672508706
768.0,0.028307,1.32669722192
769.0,0.02827,1.32666971654
770.0,0.028234,1.32664278212
771.0,0.0281410983315,1.32661623651
772.0,0.027998,1.32658991379
773.0,0.027799,1.32656364906
774.0,0.027763,1.32653727743
775.0,0.027565,1.32651064075
776.0,0.027529,1.32648373944
777.0,0.0274375264983,1.32645673446
778.0,0.027297,1.32642979393
779.0,0.027101,1.32640308596
780.0,0.026905,1.32637677618
781.0,0.026549,1.32635088313
782.0,0.0264255438578,1.32632528299
783.0,0.02632,1.3262998615
784.0,0.026127,1.3262745044
785.0,0.025933,1.32624909743
786.0,0.02558,1.32622361219
787.0,0.025229,1.326198162
788.0,0.0251169265303,1.32617273089
789.0,0.025005,1.32614729813
790.0,0.024656,1.326121843
791.0,0.024465,1.3260963402
792.0,0.024117,1.3260707373
793.0,0.0239123318711,1.32604512052
794.0,0.02374,1.32601961272
795.0,0.023552,1.32599426611
796.0,0.023365,1.32596896392
797.0,0.023178,1.32594374459
798.0,0.0230072622991,1.3259186585
799.0,0.022805,1.32589375599
800.0,0.022462,1.32586909043
801.0,0.022434,1.32584476533
802.0,0.022352261638,1.32582070749
803.0,0.022222,1.32579677505
804.0,0.022038,1.32577282617
805.0,0.022011,1.32574871898
806.0,0.0219897175806,1.32572432812
807.0,0.021956,1.32569971007
808.0,0.021773,1.3256750281
809.0,0.021902,1.32565044635
810.0,0.021875,1.3256259801
811.0,0.0219065251479,1.32560151485
812.0,0.021976,1.3255771102
813.0,0.022103,1.32555282745
814.0,0.02223,1.32552872788
815.0,0.0223431602564,1.32550487966
816.0,0.022484,1.32548139116
817.0,0.022764,1.32545816091
818.0,0.023043,1.32543503221
819.0,0.0231580404517,1.32541184837
820.0,0.023294,1.32538845269
821.0,0.023878,1.32536466739
822.0,0.02446,1.32534047938
823.0,0.0247853271264,1.32531624787
824.0,0.025163,1.32529235579
825.0,0.026199,1.32526899675
826.0,0.027689,1.32524597198
827.0,0.0283897981252,1.32522315467
828.0,0.029139,1.32520041949
829.0,0.031075,1.32517764109
830.0,0.032043077087,1.32515469463
831.0,0.032966,1.32513155304
832.0,0.034588,1.32510830761
833.0,0.036055,1.32508503829
834.0,0.0365716234014,1.32506182503
835.0,0.037022,1.32503874779
836.0,0.037879,1.32501588926
837.0,0.0382279910519,1.32499328149
838.0,0.038539,1.3249708001
839.0,0.039092,1.3249483011
840.0,0.039494,1.32492565457
841.0,0.0397456738088,1.32490287811
842.0,0.039997,1.324880039
843.0,0.040397,1.32485719904
844.0,0.0405726701803,1.32483442001
845.0,0.040748,1.32481176372
846.0,0.041145,1.32478925648
847.0,0.04131234937,1.32476684299
848.0,0.041493,1.32474454926
849.0,0.042036,1.32472240734
850.0,0.041986,1.32470049373
851.0,0.042232,1.32467884229
852.0,0.042488634586,1.32465732271
853.0,0.042723,1.32463580077
854.0,0.0428751523636,1.32461414226
855.0,0.043064,1.32459221299
856.0,0.043601,1.3245698315
857.0,0.0436965448586,1.32454709406
858.0,0.043792,1.32452436248
859.0,0.044326,1.324502
860.0,0.0445000966787,1.32448011329
861.0,0.044661,1.32445850501
862.0,0.045047,1.32443708235
863.0,0.0452754511486,1.3244157525
864.0,0.045524,1.32439442266
865.0,0.046052,1.324373
866.0,0.04658,1.32435148138
867.0,0.0468423545619,1.32432994042
868.0,0.047052,1.32430839945
869.0,0.0472484243499,1.32428688083
870.0,0.047521,1.3242654069
871.0,0.048332,1.324244
872.0,0.0486442586251,1.32422268478
873.0,0.048941,1.32420144203
874.0,0.049604,1.32418022826
875.0,0.0500498763429,1.324159
876.0,0.050495,1.3241377266
877.0,0.051154,1.3241164376
878.0,0.0515745909429,1.3240951798
879.0,0.052038,1.324074
880.0,0.052979,1.32405293455
881.0,0.0534275191998,1.32403195995
882.0,0.053856,1.32401103321
883.0,0.054649,1.32399011133
884.0,0.0551966701577,1.32396915133
885.0,0.055661,1.32394811023
886.0,0.0560568890395,1.32392690938
887.0,0.056527,1.32390557857
888.0,0.057454,1.32388428127
889.0,0.0578843651951,1.32386318172
890.0,0.058314,1.32384237863
891.0,0.059235,1.32382177956
892.0,0.0597071379802,1.32380132129
893.0,0.060088,1.32378094319
894.0,0.0604673496701,1.32376058462
895.0,0.060936,1.32374018496
896.0,0.06185,1.32371971359
897.0,0.0622713014403,1.32369924841
898.0,0.062692,1.3236787764
899.0,0.063601,1.32365827215
900.0,0.06407908645,1.32363770971
901.0,0.064575,1.32361708012
902.0,0.065618,1.32359640788
903.0,0.0662294536349,1.32357572026
904.0,0.066724,1.32355504448
905.0,0.067148131119,1.32353440781
906.0,0.067686,1.32351382955
907.0,0.068997,1.32349323117
908.0,0.0697354824469,1.3234726606
909.0,0.070366,1.32345221469
910.0,0.0710227795535,1.32343199114
911.0,0.071867,1.32341212122
912.0,0.073579,1.32339248752
913.0,0.0746568256908,1.32337285948
914.0,0.075618,1.32335300654
915.0,0.076605955498,1.32333277115
916.0,0.077922,1.32331224953
917.0,0.080852,1.32329157781
918.0,0.0825694103726,1.32327089181
919.0,0.084095,1.32325032737
920.0,0.0857714755547,1.32323002032
921.0,0.088006,1.32321008803
922.0,0.09268,1.32319047291
923.0,0.0956085362222,1.32317103454
924.0,0.098192,1.32315163339
925.0,0.101112380173,1.32313214371
926.0,0.104222,1.3231126635
927.0,0.107290107292,1.32309319257
928.0,0.11131,1.32307366129
929.0,0.119441,1.323054
930.0,0.124108545979,1.32303414531
931.0,0.128093,1.32301412916
932.0,0.132707315455,1.32299402495
933.0,0.137382,1.32297390606
934.0,0.141503278152,1.32295384589
935.0,0.146496,1.32293391781
936.0,0.155737,1.32291417591
937.0,0.162590653748,1.32289456822
938.0,0.168802,1.32287505462
939.0,0.174592020311,1.32285560069
940.0,0.181811,1.32283617832
941.0,0.196308,1.32281684429
942.0,0.203914705194,1.3227975703
943.0,0.21055,1.32277829108
944.0,0.219364931155,1.32275894136
945.0,0.228721,1.32273946826
946.0,0.237488115982,1.32271989444
947.0,0.246816,1.32270027078
948.0,0.25673465908,1.32268064821
949.0,0.270131,1.32266107764
950.0,0.297625,1.32264161
951.0,0.313469200789,1.32262229526
952.0,0.327359,1.32260313812
953.0,0.344722807706,1.32258407926
954.0,0.362238,1.32256505459
955.0,0.378240788358,1.322546
